Time (s)	WE(1).Current (A)	Time (s)	WE(1).Current (A)
1.01971399742547	0.00036859130859375	4.02136698984702	-9.99969482421875E-05
1.02971399740022	0.000360504150390625	4.03136698982178	-0.000999969482421875
1.03971399737497	0.0003521728515625	4.04136698979653	-0.00999969482421875
1.04971399734973	0.000344970703125	4.05136698977128	-0.0371124267578125
1.05971399732448	0.00033734130859375	4.06136698974603	-0.03424072265625
1.06971399729923	0.00033013916015625	4.07136698972079	-0.0317779541015625
1.07971399727398	0.00032281494140625	4.08136698969554	-0.0295257568359375
1.08971399724874	0.00031646728515625	4.09136698967029	-0.027398681640625
1.09971399722349	0.00030926513671875	4.10136698964504	-0.0253387451171875
1.10971399719824	0.000303131103515625	4.1113669896198	-0.02335205078125
1.11971399717299	0.000296661376953125	4.12136698959455	-0.0214263916015625
1.12971399714775	0.0002908935546875	4.1313669895693	-0.019512939453125
1.1397139971225	0.000285003662109375	4.14136698954405	-0.0175537109375
1.14971399709725	0.0002796630859375	4.15136698951881	-0.015570068359375
1.159713997072	0.000273712158203125	4.16136698949356	-0.01336669921875
1.16971399704676	0.0002689208984375	4.17136698946831	-0.01099853515625
1.17971399702151	0.000263275146484375	4.18136698944306	-0.0083251953125
1.18971399699626	0.000259002685546875	4.19136698941782	-0.006488037109375
1.19971399697101	0.000254425048828125	4.20136698939257	-0.0053924560546875
1.20971399694577	0.000250213623046875	4.21136698936732	-0.0046466064453125
1.21971399692052	0.000245391845703125	4.22136698934207	-0.00408782958984375
1.22971399689527	0.000241058349609375	4.23136698931683	-0.0036639404296875
1.23971399687002	0.0002366943359375	4.24136698929158	-0.003319091796875
1.24971399684478	0.00023297119140625	4.25136698926633	-0.00303253173828125
1.25971399681953	0.000228485107421875	4.26136698924108	-0.0024920654296875
1.26971399679428	0.000224884033203125	4.27136698921584	-0.0025726318359375
1.27971399676903	0.000220550537109375	4.28136698919059	-0.0023828125
1.28971399674379	0.000217498779296875	4.29136698916534	-0.00221771240234375
1.29971399671854	0.0002137451171875	4.30136698914009	-0.00206268310546875
1.30971399669329	0.0002105712890625	4.31136698911484	-0.001925048828125
1.31971399666804	0.00020703125	4.3213669890896	-0.00179931640625
1.32971399664279	0.0002041015625	4.33136698906435	-0.001688232421875
1.33971399661755	0.000200531005859375	4.3413669890391	-0.00158233642578125
1.3497139965923	0.000197998046875	4.35136698901385	-0.0014862060546875
1.35971399656705	0.0001943359375	4.36136698898861	-0.00139892578125
1.3697139965418	0.00019189453125	4.37136698896336	-0.0013201904296875
1.37971399651656	0.000188507080078125	4.38136698893811	-0.0012451171875
1.38971399649131	0.0001861572265625	4.39136698891286	-0.00117340087890625
1.39971399646606	0.000182861328125	4.40136698888762	-0.0011114501953125
1.40971399644081	0.000180877685546875	4.41136698886237	-0.00105743408203125
1.41971399641557	0.000177703857421875	4.42136698883712	-0.00100799560546875
1.42971399639032	0.000175323486328125	4.43136698881187	-0.0009588623046875
1.43971399636507	0.000172332763671875	4.44136698878663	-0.00091949462890625
1.44971399633982	0.000170654296875	4.45136698876138	-0.00088409423828125
1.45971399631458	0.0001678466796875	4.46136698873613	-0.000850830078125
1.46971399628933	0.000166107177734375	4.47136698871088	-0.0008123779296875
1.47971399626408	0.000163421630859375	4.48136698868564	-0.00077972412109375
1.48971399623883	0.000161865234375	4.49136698866039	-0.0007501220703125
1.49971399621359	0.000159088134765625	4.50136698863514	-0.0007232666015625
1.50971399618834	0.0001575927734375	4.51136698860989	-0.000693359375
1.51971399616309	0.00015496826171875	4.52136698858465	-0.0006707763671875
1.52971399613784	0.000153717041015625	4.5313669885594	-0.0006500244140625
1.5397139961126	0.0001510009765625	4.54136698853415	-0.00063262939453125
1.54971399608735	0.000149658203125	4.5513669885089	-0.00061004638671875
1.5597139960621	0.00014727783203125	4.56136698848366	-0.0005926513671875
1.56971399603685	0.0001461181640625	4.57136698845841	-0.00057525634765625
1.57971399601161	0.000143768310546875	4.58136698843316	-0.0005609130859375
1.58971399598636	0.000142364501953125	4.59136698840791	-0.00054168701171875
1.59971399596111	0.000140106201171875	4.60136698838267	-0.00052642822265625
1.60971399593586	0.00013897705078125	4.61136698835742	-0.0005108642578125
1.61971399591062	0.000136749267578125	4.62136698833217	-0.000498046875
1.62971399588537	0.000135894775390625	4.63136698830692	-0.0004825439453125
1.63971399586012	0.000133636474609375	4.64136698828167	-0.00046929931640625
1.64971399583487	0.000132720947265625	4.65136698825643	-0.00045623779296875
1.65971399580963	0.0001307373046875	4.66136698823118	-0.000445281982421875
1.66971399578438	0.000129913330078125	4.67136698820593	-0.00043145751953125
1.67971399575913	0.00012762451171875	4.68136698818068	-0.000419219970703125
1.68971399573388	0.00012701416015625	4.69136698815544	-0.000407379150390625
1.69971399570863	0.000125030517578125	4.70136698813019	-0.00039715576171875
1.70971399568339	0.00012408447265625	4.71136698810494	-0.000385498046875
1.71971399565814	0.000122161865234375	4.72136698807969	-0.000374908447265625
1.72971399563289	0.00012139892578125	4.73136698805445	-0.00036492919921875
1.73971399560764	0.000119781494140625	4.7413669880292	-0.000356292724609375
1.7497139955824	0.00011895751953125	4.75136698800395	-0.00034674072265625
1.75971399555715	0.000117279052734375	4.7613669879787	-0.000337005615234375
1.7697139955319	0.000117034912109375	4.77136698795346	-0.000328033447265625
1.77971399550665	0.000115081787109375	4.78136698792821	-0.000319976806640625
1.78971399548141	0.000114288330078125	4.79136698790296	-0.000311187744140625
1.79971399545616	0.00011273193359375	4.80136698787771	-0.0003023681640625
1.80971399543091	0.00011199951171875	4.81136698785247	-0.000294708251953125
1.81971399540566	0.0001104736328125	4.82136698782722	-0.000287994384765625
1.82971399538042	0.000109832763671875	4.83136698780197	-0.000281005859375
1.83971399535517	0.0001082763671875	4.84136698777672	-0.00027337646484375
1.84971399532992	0.00010772705078125	4.85136698775148	-0.000266937255859375
1.85971399530467	0.000106353759765625	4.86136698772623	-0.00026092529296875
1.86971399527943	0.000105743408203125	4.87136698770098	-0.00025506591796875
1.87971399525418	0.0001043701171875	4.88136698767573	-0.000248504638671875
1.88971399522893	0.00010369873046875	4.89136698765049	-0.0002427978515625
1.89971399520368	0.000102294921875	4.90136698762524	-0.0002373046875
1.90971399517844	0.000101531982421875	4.91136698759999	-0.000231719970703125
1.91971399515319	0.000100128173828125	4.92136698757474	-0.000225341796875
1.92971399512794	9.991455078125E-05	4.9313669875495	-0.000219451904296875
1.93971399510269	9.8846435546875E-05	4.94136698752425	-0.000214080810546875
1.94971399507745	9.8358154296875E-05	4.951366987499	-0.000209228515625
1.9597139950522	9.7015380859375E-05	4.96136698747375	-0.000203765869140625
1.96971399502695	9.674072265625E-05	4.9713669874485	-0.000198760986328125
1.9797139950017	9.55810546875E-05	4.98136698742326	-0.00019384765625
1.98971399497646	9.5245361328125E-05	4.99136698739801	-0.00018994140625
1.99971399495121	9.375E-05	5.00136698737276	-0.000185821533203125
2.00971399492596	9.356689453125E-05	5.01136698734751	-0.000182464599609375
2.01971399490071	9.2315673828125E-05	5.02136698732227	-0.000179473876953125
2.02971399487546	9.197998046875E-05	5.03136698729702	-0.000176849365234375
2.03971399485022	9.0850830078125E-05	5.04136698727177	-0.00017401123046875
2.04971399482497	9.0606689453125E-05	5.05136698724652	-0.0001715087890625
2.05971399479972	8.953857421875E-05	5.06136698722128	-0.000169219970703125
2.06971399477447	8.935546875E-05	5.07136698719603	-0.000166961669921875
2.07971399474923	8.807373046875E-05	5.08136698717078	-0.00016448974609375
2.08971399472398	8.77685546875E-05	5.09136698714553	-0.000162078857421875
2.09971399469873	8.6700439453125E-05	5.10136698712029	-0.00016009521484375
2.10971399467348	8.642578125E-05	5.11136698709504	-0.000157958984375
2.11971399464824	8.53271484375E-05	5.12136698706979	-0.000155914306640625
2.12971399462299	8.526611328125E-05	5.13136698704454	-0.00015374755859375
2.13971399459774	8.4075927734375E-05	5.1413669870193	-0.000152099609375
2.14971399457249	8.4197998046875E-05	5.15136698699405	-0.0001502685546875
2.15971399454725	8.3038330078125E-05	5.1613669869688	-0.0001484375
2.169713994522	8.2855224609375E-05	5.17136698694355	-0.000146331787109375
2.17971399449675	8.1573486328125E-05	5.18136698691831	-0.00014483642578125
2.1897139944715	8.14208984375E-05	5.19136698689306	-0.00014312744140625
2.19971399444626	8.0322265625E-05	5.20136698686781	-0.00014154052734375
2.20971399442101	8.0230712890625E-05	5.21136698684256	-0.0001396484375
2.21971399439576	7.92236328125E-05	5.22136698681732	-0.000138275146484375
2.22971399437051	7.9254150390625E-05	5.23136698679207	-0.00013665771484375
2.23971399434527	7.8094482421875E-05	5.24136698676682	-0.000135284423828125
2.24971399432002	7.8094482421875E-05	5.25136698674157	-0.0001334228515625
2.25971399429477	7.7056884765625E-05	5.26136698671633	-0.000132232666015625
2.26971399426952	7.71484375E-05	5.27136698669108	-0.00013067626953125
2.27971399424428	7.623291015625E-05	5.28136698666583	-0.000129486083984375
2.28971399421903	7.659912109375E-05	5.29136698664058	-0.00012774658203125
2.29971399419378	7.562255859375E-05	5.30136698661534	-0.000126678466796875
2.30971399416853	7.501220703125E-05	5.31136698659009	-0.000125274658203125
2.31971399414329	7.391357421875E-05	5.32136698656484	-0.0001241455078125
2.32971399411804	7.403564453125E-05	5.33136698653959	-0.00012255859375
2.33971399409279	7.2967529296875E-05	5.34136698651434	-0.000121551513671875
2.34971399406754	7.3150634765625E-05	5.3513669864891	-0.000120269775390625
2.35971399404229	7.2113037109375E-05	5.36136698646385	-0.000119293212890625
2.36971399401705	7.2509765625E-05	5.3713669864386	-0.00011785888671875
2.3797139939918	7.1197509765625E-05	5.38136698641335	-0.000116851806640625
2.38971399396655	7.135009765625E-05	5.39136698638811	-0.00011553955078125
2.3997139939413	7.037353515625E-05	5.40136698636286	-0.000114532470703125
2.40971399391606	7.0556640625E-05	5.41136698633761	-0.00011322021484375
2.41971399389081	6.94580078125E-05	5.42136698631236	-0.00011224365234375
2.42971399386556	6.964111328125E-05	5.43136698628712	-0.0001112060546875
2.43971399384031	6.8634033203125E-05	5.44136698626187	-0.000110260009765625
2.44971399381507	6.8878173828125E-05	5.45136698623662	-0.000109161376953125
2.45971399378982	6.7840576171875E-05	5.46136698621137	-0.000108154296875
2.46971399376457	6.7718505859375E-05	5.47136698618613	-0.000107208251953125
2.47971399373932	6.6925048828125E-05	5.48136698616088	-0.000106231689453125
2.48971399371408	6.7291259765625E-05	5.49136698613563	-0.000105194091796875
2.49971399368883	6.634521484375E-05	5.50136698611038	-0.00010418701171875
2.50971399366358	6.6558837890625E-05	5.51136698608514	-0.000103363037109375
2.51971399363833	6.5643310546875E-05	5.52136698605989	-0.0001024169921875
2.52971399361309	6.5826416015625E-05	5.53136698603464	-0.000101470947265625
2.53971399358784	6.494140625E-05	5.54136698600939	-0.0001004638671875
2.54971399356259	6.512451171875E-05	5.55136698598415	-9.9700927734375E-05
2.55971399353734	6.4178466796875E-05	5.5613669859589	-9.87548828125E-05
2.5697139935121	6.4300537109375E-05	5.57136698593365	-9.7930908203125E-05
2.57971399348685	6.341552734375E-05	5.5813669859084	-9.6923828125E-05
2.5897139934616	6.365966796875E-05	5.59136698588316	-9.6282958984375E-05
2.59971399343635	6.2835693359375E-05	5.60136698585791	-9.53369140625E-05
2.60971399341111	6.2957763671875E-05	5.61136698583266	-9.4635009765625E-05
2.61971399338586	6.2225341796875E-05	5.62136698580741	-9.3658447265625E-05
2.62971399336061	6.2255859375E-05	5.63136698578217	-9.3048095703125E-05
2.63971399333536	6.1431884765625E-05	5.64136698575692	-9.21630859375E-05
2.64971399331012	6.1614990234375E-05	5.65136698573167	-9.149169921875E-05
2.65971399328487	6.0699462890625E-05	5.66136698570642	-9.0545654296875E-05
2.66971399325962	6.09130859375E-05	5.67136698568117	-8.9996337890625E-05
2.67971399323437	6.0089111328125E-05	5.68136698565593	-8.9111328125E-05
2.68971399320913	6.0394287109375E-05	5.69136698563068	-8.843994140625E-05
2.69971399318388	5.9600830078125E-05	5.70136698560543	-8.75244140625E-05
2.70971399315863	5.9814453125E-05	5.71136698558018	-8.6944580078125E-05
2.71971399313338	5.9051513671875E-05	5.72136698555494	-8.612060546875E-05
2.72971399310813	5.9173583984375E-05	5.73136698552969	-8.551025390625E-05
2.73971399308289	5.8349609375E-05	5.74136698550444	-8.4686279296875E-05
2.74971399305764	5.859375E-05	5.75136698547919	-8.41064453125E-05
2.75971399303239	5.7769775390625E-05	5.76136698545395	-8.33740234375E-05
2.76971399300714	5.7952880859375E-05	5.7713669854287	-8.270263671875E-05
2.7797139929819	5.718994140625E-05	5.78136698540345	-8.197021484375E-05
2.78971399295665	5.743408203125E-05	5.7913669853782	-8.135986328125E-05
2.7997139929314	5.6671142578125E-05	5.80136698535296	-8.0718994140625E-05
2.80971399290615	5.70068359375E-05	5.81136698532771	-8.0047607421875E-05
2.81971399288091	5.615234375E-05	5.82136698530246	-7.940673828125E-05
2.82971399285566	5.633544921875E-05	5.83136698527721	-7.8765869140625E-05
2.83971399283041	5.5572509765625E-05	5.84136698525197	-7.8155517578125E-05
2.84971399280516	5.5694580078125E-05	5.85136698522672	-7.75146484375E-05
2.85971399277992	5.4962158203125E-05	5.86136698520147	-7.6873779296875E-05
2.86971399275467	5.5267333984375E-05	5.87136698517622	-7.623291015625E-05
2.87971399272942	5.4595947265625E-05	5.88136698515098	-7.5653076171875E-05
2.88971399270417	5.48095703125E-05	5.89136698512573	-7.501220703125E-05
2.89971399267893	5.3863525390625E-05	5.90136698510048	-7.4432373046875E-05
2.90971399265368	5.4443359375E-05	5.91136698507523	-7.3760986328125E-05
2.91971399262843	5.37109375E-05	5.92136698504999	-7.32421875E-05
2.92971399260318	5.401611328125E-05	5.93136698502474	-7.2540283203125E-05
2.93971399257794	5.31005859375E-05	5.94136698499949	-7.1990966796875E-05
2.94971399255269	5.3497314453125E-05	5.95136698497424	-7.12890625E-05
2.95971399252744	5.291748046875E-05	5.961366984949	-7.0831298828125E-05
2.96971399250219	5.3131103515625E-05	5.97136698492375	-7.0068359375E-05
2.97971399247695	5.218505859375E-05	5.9813669848985	-6.9580078125E-05
2.9897139924517	5.2520751953125E-05	5.99136698487325	-6.8817138671875E-05
2.99971399242645	5.17578125E-05	6.001366984848	-6.829833984375E-05
3.0097139924012	5.2032470703125E-05	6.01136698482276	-6.7474365234375E-05
3.01971399237596	5.120849609375E-05	6.02136698479751	-6.689453125E-05
3.02971399235071	5.157470703125E-05	6.03136698477226	-6.5948486328125E-05
3.03971399232546	5.0811767578125E-05	6.04136698474701	-6.5155029296875E-05
3.04971399230021	5.1177978515625E-05	6.05136698472177	-6.3995361328125E-05
3.05971399227496	5.0384521484375E-05	6.06136698469652	-6.304931640625E-05
3.06971399224972	5.072021484375E-05	6.07136698467127	-6.21337890625E-05
3.07971399222447	5.0018310546875E-05	6.08136698464602	-6.1492919921875E-05
3.08971399219922	5.04150390625E-05	6.09136698462078	-6.0791015625E-05
3.09971399217397	4.9530029296875E-05	6.10136698459553	-6.0302734375E-05
3.10971399214873	4.9957275390625E-05	6.11136698457028	-5.9722900390625E-05
3.11971399212348	4.9224853515625E-05	6.12136698454503	-5.9326171875E-05
3.12971399209823	4.9407958984375E-05	6.13136698451979	-5.877685546875E-05
3.13971399207298	4.874267578125E-05	6.14136698449454	-5.841064453125E-05
3.14971399204774	4.91912841796875E-05	6.15136698446929	-5.7952880859375E-05
3.15971399202249	4.83978271484375E-05	6.16136698444404	-5.7647705078125E-05
3.16971399199724	4.87213134765625E-05	6.1713669844188	-5.718994140625E-05
3.17971399197199	4.8077392578125E-05	6.18136698439355	-5.6884765625E-05
3.18971399194675	4.84588623046875E-05	6.1913669843683	-5.6488037109375E-05
3.1997139919215	4.7662353515625E-05	6.20136698434305	-5.621337890625E-05
3.20971399189625	4.80316162109375E-05	6.21136698431781	-5.5816650390625E-05
3.219713991871	4.7314453125E-05	6.22136698429256	-5.55419921875E-05
3.22971399184576	4.76470947265625E-05	6.23136698426731	-5.5145263671875E-05
3.23971399182051	4.69970703125E-05	6.24136698424206	-5.4901123046875E-05
3.24971399179526	4.73907470703125E-05	6.25136698421682	-5.4534912109375E-05
3.25971399177001	4.6612548828125E-05	6.26136698419157	-5.426025390625E-05
3.26971399174477	4.69818115234375E-05	6.27136698416632	-5.3955078125E-05
3.27971399171952	4.62677001953125E-05	6.28136698414107	-5.3680419921875E-05
3.28971399169427	4.65576171875E-05	6.29136698411583	-5.3375244140625E-05
3.29971399166902	4.58709716796875E-05	6.30136698409058	-5.31005859375E-05
3.30971399164378	4.6221923828125E-05	6.31136698406533	-5.2764892578125E-05
3.31971399161853	4.55718994140625E-05	6.32136698404008	-5.2581787109375E-05
3.32971399159328	4.5941162109375E-05	6.33136698401484	-5.2215576171875E-05
3.33971399156803	4.520263671875E-05	6.34136698398959	-5.2001953125E-05
3.34971399154279	4.5574951171875E-05	6.35136698396434	-5.1727294921875E-05
3.35971399151754	4.4921875E-05	6.36136698393909	-5.1483154296875E-05
3.36971399149229	4.5220947265625E-05	6.37136698391384	-5.120849609375E-05
3.37971399146704	4.449462890625E-05	6.3813669838886	-5.096435546875E-05
3.38971399144179	4.49462890625E-05	6.39136698386335	-5.0689697265625E-05
3.39971399141655	4.423828125E-05	6.4013669838381	-5.047607421875E-05
3.4097139913913	4.45526123046875E-05	6.41136698381285	-5.0201416015625E-05
3.41971399136605	4.3902587890625E-05	6.42136698378761	-4.998779296875E-05
3.4297139913408	4.4390869140625E-05	6.43136698376236	-4.9713134765625E-05
3.43971399131556	4.36859130859375E-05	6.44136698373711	-4.949951171875E-05
3.44971399129031	4.417724609375E-05	6.45136698371186	-4.925537109375E-05
3.45971399126506	4.34814453125E-05	6.46136698368662	-4.90997314453125E-05
3.46971399123981	4.37530517578125E-05	6.47136698366137	-4.88128662109375E-05
3.47971399121457	4.30389404296875E-05	6.48136698363612	-4.86328125E-05
3.48971399118932	4.3438720703125E-05	6.49136698361087	-4.83734130859375E-05
3.49971399116407	4.27581787109375E-05	6.50136698358563	-4.81842041015625E-05
3.50971399113882	4.3048095703125E-05	6.51136698356038	-4.79339599609375E-05
3.51971399111358	4.24102783203125E-05	6.52136698353513	-4.77630615234375E-05
3.52971399108833	4.2926025390625E-05	6.53136698350988	-4.7509765625E-05
3.53971399106308	4.21630859375E-05	6.54136698348464	-4.732666015625E-05
3.54971399103783	4.26422119140625E-05	6.55136698345939	-4.70794677734375E-05
3.55971399101259	4.1961669921875E-05	6.56136698343414	-4.69085693359375E-05
3.56971399098734	4.2413330078125E-05	6.57136698340889	-4.666748046875E-05
3.57971399096209	4.16839599609375E-05	6.58136698338365	-4.6502685546875E-05
3.58971399093684	4.207763671875E-05	6.5913669833584	-4.62646484375E-05
3.5997139909116	4.1375732421875E-05	6.60136698333315	-4.6112060546875E-05
3.60971399088635	4.17877197265625E-05	6.6113669833079	-4.58770751953125E-05
3.6197139908611	4.1107177734375E-05	6.62136698328266	-4.57122802734375E-05
3.62971399083585	4.14886474609375E-05	6.63136698325741	-4.54742431640625E-05
3.63971399081061	4.085693359375E-05	6.64136698323216	-4.53216552734375E-05
3.64971399078536	4.12567138671875E-05	6.65136698320691	-4.50927734375E-05
3.65971399076011	4.052734375E-05	6.66136698318167	-4.49493408203125E-05
3.66971399073486	4.09332275390625E-05	6.67136698315642	-4.4720458984375E-05
3.67971399070962	4.02008056640625E-05	6.68136698313117	-4.4580078125E-05
3.68971399068437	4.07684326171875E-05	6.69136698310592	-4.43634033203125E-05
3.69971399065912	4.01092529296875E-05	6.70136698308067	-4.42230224609375E-05
3.70971399063387	4.04327392578125E-05	6.71136698305543	-4.39971923828125E-05
