Time (s)	WE(1).Current (A)	Time (s)	WE(1).Current (A)
0.995600997486349	0.000417022705078125	1.29735599672449	-0.000999969482421875
1.0056009974611	0.000406341552734375	1.30735599669924	-0.00999969482421875
1.01560099743585	0.00039569091796875	1.317355996674	-0.03802490234375
1.02560099741061	0.000386474609375	1.32735599664875	-0.034954833984375
1.03560099738536	0.000376983642578125	1.3373559966235	-0.0323486328125
1.04560099736011	0.000367919921875	1.34735599659825	-0.0299560546875
1.05560099733486	0.000358489990234375	1.35735599657301	-0.0277099609375
1.06560099730962	0.00035015869140625	1.36735599654776	-0.0255218505859375
1.07560099728437	0.000341278076171875	1.37735599652251	-0.0233551025390625
1.08560099725912	0.00033343505859375	1.38735599649726	-0.02119140625
1.09560099723387	0.00032513427734375	1.39735599647202	-0.018994140625
1.10560099720863	0.000318206787109375	1.40735599644677	-0.016754150390625
1.11560099718338	0.00031103515625	1.41735599642152	-0.014495849609375
1.12560099715813	0.000304718017578125	1.42735599639627	-0.01229248046875
1.13560099713288	0.0002978515625	1.43735599637103	-0.0102294921875
1.14560099710764	0.0002921142578125	1.44735599634578	-0.0084747314453125
1.15560099708239	0.00028582763671875	1.45735599632053	-0.00711669921875
1.16560099705714	0.0002802734375	1.46735599629528	-0.0060821533203125
1.17560099703189	0.00027392578125	1.47735599627003	-0.0052734375
1.18560099700665	0.00026849365234375	1.48735599624479	-0.00462921142578125
1.1956009969814	0.00026300048828125	1.49735599621954	-0.00409637451171875
1.20560099695615	0.00025823974609375	1.50735599619429	-0.00365814208984375
1.2156009969309	0.000252777099609375	1.51735599616904	-0.003287353515625
1.22560099690565	0.000248291015625	1.5273559961438	-0.00297088623046875
1.23560099688041	0.000243255615234375	1.53735599611855	-0.00243255615234375
1.24560099685516	0.000239044189453125	1.5473559960933	-0.00247528076171875
1.25560099682991	0.0002340087890625	1.55735599606805	-0.0022698974609375
1.26560099680466	0.000229827880859375	1.56735599604281	-0.0020867919921875
1.27560099677942	0.00022540283203125	1.57735599601756	-0.00192352294921875
1.28560099675417	0.0002218017578125	1.58735599599231	-0.00178192138671875
Time (s)	WE(1).Current (A)	Time (s)	WE(1).Current (A)
1.82794299538489	0.01	2.12964999462315	-0.039068603515625
1.83794299535964	0.022332763671875	2.1396499945979	-0.035736083984375
1.84794299533439	0.0217803955078125	2.14964999457266	-0.032879638671875
1.85794299530914	0.0212890625	2.15964999454741	-0.030389404296875
1.8679429952839	0.020684814453125	2.16964999452216	-0.0280517578125
1.87794299525865	0.019964599609375	2.17964999449691	-0.0258056640625
1.8879429952334	0.019158935546875	2.18964999447167	-0.0235565185546875
1.89794299520815	0.0183929443359375	2.19964999444642	-0.021319580078125
1.90794299518291	0.0176544189453125	2.20964999442117	-0.0190216064453125
1.91794299515766	0.01685791015625	2.21964999439592	-0.0166656494140625
1.92794299513241	0.01605224609375	2.22964999437067	-0.0142425537109375
1.93794299510716	0.015234375	2.23964999434543	-0.01181640625
1.94794299508192	0.014434814453125	2.24964999432018	-0.009503173828125
1.95794299505667	0.0136444091796875	2.25964999429493	-0.00755615234375
1.96794299503142	0.012890625	2.26964999426968	-0.0061065673828125
1.97794299500617	0.0121490478515625	2.27964999424444	-0.0050537109375
1.98794299498093	0.0114471435546875	2.28964999421919	-0.00426971435546875
1.99794299495568	0.010760498046875	2.29964999419394	-0.0036566162109375
2.00794299493043	0.01011962890625	2.30964999416869	-0.00316802978515625
2.01794299490518	0.0094970703125	2.31964999414345	-0.00276824951171875
2.02794299487994	0.0089141845703125	2.3296499941182	-0.002437744140625
2.03794299485469	0.008355712890625	2.33964999409295	-0.00193267822265625
2.04794299482944	0.0078369140625	2.3496499940677	-0.001939697265625
2.05794299480419	0.007342529296875	2.35964999404246	-0.001748046875
2.06794299477895	0.006884765625	2.36964999401721	-0.001588134765625
2.0779429947537	0.0064453125	2.37964999399196	-0.0014483642578125
2.08794299472845	0.00604248046875	2.38964999396671	-0.0013323974609375
2.0979429947032	0.0056610107421875	2.39964999394147	-0.00123199462890625
2.10794299467796	0.00531005859375	2.40964999391622	-0.0011474609375
2.11794299465271	0.0049774169921875	2.41964999389097	-0.0010699462890625
Time (s)	WE(1).Current (A)	Time (s)	WE(1).Current (A)
2.66629999326824	0.01	2.96794399250666	-0.0391082763671875
2.67629999324299	0.0223052978515625	2.97794399248141	-0.0357635498046875
2.68629999321774	0.0217681884765625	2.98794399245617	-0.032904052734375
2.6962999931925	0.0212982177734375	2.99794399243092	-0.030389404296875
2.70629999316725	0.020684814453125	3.00794399240567	-0.0280670166015625
2.716299993142	0.019940185546875	3.01794399238042	-0.0258148193359375
2.72629999311675	0.019171142578125	3.02794399235518	-0.0235687255859375
2.73629999309151	0.018463134765625	3.03794399232993	-0.02130126953125
2.74629999306626	0.017694091796875	3.04794399230468	-0.0189971923828125
2.75629999304101	0.0168792724609375	3.05794399227943	-0.0166290283203125
2.76629999301576	0.0160552978515625	3.06794399225419	-0.01419677734375
2.77629999299052	0.015240478515625	3.07794399222894	-0.0117523193359375
2.78629999296527	0.014434814453125	3.08794399220369	-0.009429931640625
2.79629999294002	0.0136474609375	3.09794399217844	-0.0074798583984375
2.80629999291477	0.012884521484375	3.1079439921532	-0.0060333251953125
2.81629999288953	0.01214599609375	3.11794399212795	-0.004974365234375
2.82629999286428	0.0114410400390625	3.1279439921027	-0.004189453125
2.83629999283903	0.0107574462890625	3.13794399207745	-0.00356842041015625
2.84629999281378	0.010107421875	3.14794399205221	-0.00307464599609375
2.85629999278854	0.0094879150390625	3.15794399202696	-0.00266845703125
2.86629999276329	0.008905029296875	3.16794399200171	-0.002086181640625
2.87629999273804	0.008349609375	3.17794399197646	-0.00207763671875
2.88629999271279	0.0078277587890625	3.18794399195122	-0.00185546875
2.89629999268755	0.0073394775390625	3.19794399192597	-0.00166656494140625
2.9062999926623	0.0068817138671875	3.20794399190072	-0.0015130615234375
2.91629999263705	0.0064483642578125	3.21794399187547	-0.00137939453125
2.9262999926118	0.006048583984375	3.22794399185022	-0.00126678466796875
2.93629999258656	0.005670166015625	3.23794399182498	-0.0011676025390625
2.94629999256131	0.0053192138671875	3.24794399179973	-0.001085205078125
2.95629999253606	0.004986572265625	3.25794399177448	-0.00101043701171875
Time (s)	WE(1).Current (A)	Time (s)	WE(1).Current (A)
3.48185499120916	0.01	3.78343199044775	-0.03907470703125
3.49185499118391	0.02232666015625	3.7934319904225	-0.03572998046875
3.50185499115867	0.0218048095703125	3.80343199039726	-0.032879638671875
3.51185499113342	0.021319580078125	3.81343199037201	-0.03035888671875
3.52185499110817	0.020703125	3.82343199034676	-0.0280426025390625
3.53185499108292	0.0199310302734375	3.83343199032151	-0.025775146484375
3.54185499105768	0.0191864013671875	3.84343199029627	-0.0235321044921875
3.55185499103243	0.01845703125	3.85343199027102	-0.0212554931640625
3.56185499100718	0.017681884765625	3.86343199024577	-0.0189605712890625
3.57185499098193	0.016845703125	3.87343199022052	-0.0165771484375
3.58185499095669	0.0160247802734375	3.88343199019528	-0.0141510009765625
3.59185499093144	0.01519775390625	3.89343199017003	-0.0116943359375
3.60185499090619	0.0143951416015625	3.90343199014478	-0.009381103515625
3.61185499088094	0.0136016845703125	3.91343199011953	-0.00743408203125
3.6218549908557	0.012841796875	3.92343199009429	-0.00599365234375
3.63185499083045	0.012103271484375	3.93343199006904	-0.00494384765625
3.6418549908052	0.011395263671875	3.94343199004379	-0.0041644287109375
3.65185499077995	0.010711669921875	3.95343199001854	-0.00354736328125
3.6618549907547	0.010064697265625	3.9634319899933	-0.00305572509765625
3.67185499072946	0.0094482421875	3.97343198996805	-0.00265228271484375
3.68185499070421	0.0088623046875	3.9834319899428	-0.002086181640625
3.69185499067896	0.0083099365234375	3.99343198991755	-0.00206329345703125
3.70185499065371	0.0077911376953125	4.00343198989231	-0.0018402099609375
3.71185499062847	0.007305908203125	4.01343198986706	-0.00165313720703125
3.72185499060322	0.0068450927734375	4.02343198984181	-0.0014996337890625
3.73185499057797	0.006414794921875	4.03343198981656	-0.00136627197265625
3.74185499055272	0.0060150146484375	4.04343198979132	-0.001253662109375
3.75185499052748	0.0056427001953125	4.05343198976607	-0.0011566162109375
3.76185499050223	0.0052886962890625	4.06343198974082	-0.00107421875
3.77185499047698	0.004962158203125	4.07343198971557	-0.00099945068359375
Time (s)	WE(1).Current (A)	Time (s)	WE(1).Current (A)
4.28476298918201	0.01	4.58656898842003	-0.0390655517578125
4.29476298915677	0.022332763671875	4.59656898839478	-0.035736083984375
4.30476298913152	0.021807861328125	4.60656898836953	-0.0328765869140625
4.31476298910627	0.021337890625	4.61656898834428	-0.0303558349609375
4.32476298908102	0.020703125	4.62656898831904	-0.0280303955078125
4.33476298905578	0.01993408203125	4.63656898829379	-0.025787353515625
4.34476298903053	0.01917724609375	4.64656898826854	-0.02353515625
4.35476298900528	0.0184539794921875	4.65656898824329	-0.0212677001953125
4.36476298898003	0.0176605224609375	4.66656898821805	-0.01895751953125
4.37476298895479	0.01683349609375	4.6765689881928	-0.0165924072265625
4.38476298892954	0.0159942626953125	4.68656898816755	-0.0141571044921875
4.39476298890429	0.0151763916015625	4.6965689881423	-0.0117034912109375
4.40476298887904	0.01436767578125	4.70656898811706	-0.0093780517578125
4.41476298885379	0.013580322265625	4.71656898809181	-0.0074371337890625
4.42476298882855	0.0128173828125	4.72656898806656	-0.00599365234375
4.4347629888033	0.0120819091796875	4.73656898804131	-0.0049407958984375
4.44476298877805	0.0113739013671875	4.74656898801607	-0.00415924072265625
4.4547629887528	0.010693359375	4.75656898799082	-0.003546142578125
4.46476298872756	0.010040283203125	4.76656898796557	-0.0030535888671875
4.47476298870231	0.009423828125	4.77656898794032	-0.00264984130859375
4.48476298867706	0.0088409423828125	4.78656898791508	-0.00207763671875
4.49476298865181	0.0082855224609375	4.79656898788983	-0.0020623779296875
4.50476298862657	0.0077667236328125	4.80656898786458	-0.001839599609375
4.51476298860132	0.007281494140625	4.81656898783933	-0.001651611328125
4.52476298857607	0.0068267822265625	4.82656898781408	-0.0014971923828125
4.53476298855082	0.0063934326171875	4.83656898778884	-0.00136505126953125
4.54476298852558	0.0059967041015625	4.84656898776359	-0.00125213623046875
4.55476298850033	0.005621337890625	4.85656898773834	-0.001153564453125
4.56476298847508	0.0052734375	4.86656898771309	-0.0010699462890625
4.57476298844983	0.00494384765625	4.87656898768785	-0.00099578857421875
Time (s)	WE(1).Current (A)	Time (s)	WE(1).Current (A)
5.11825198707766	0.01	5.41985198631619	-0.03907470703125
5.12825198705241	0.022308349609375	5.42985198629094	-0.0357086181640625
5.13825198702716	0.0218170166015625	5.43985198626569	-0.0328704833984375
5.14825198700191	0.0213348388671875	5.44985198624045	-0.0303375244140625
5.15825198697667	0.020697021484375	5.4598519862152	-0.0280303955078125
5.16825198695142	0.019940185546875	5.46985198618995	-0.0257537841796875
5.17825198692617	0.0192230224609375	5.4798519861647	-0.0235260009765625
5.18825198690092	0.0184844970703125	5.48985198613946	-0.021246337890625
5.19825198687568	0.0176849365234375	5.49985198611421	-0.0189422607421875
5.20825198685043	0.01685791015625	5.50985198608896	-0.0165557861328125
5.21825198682518	0.0160247802734375	5.51985198606371	-0.014129638671875
5.22825198679993	0.01519775390625	5.52985198603847	-0.0116668701171875
5.23825198677469	0.014385986328125	5.53985198601322	-0.0093414306640625
5.24825198674944	0.0135986328125	5.54985198598797	-0.0073974609375
5.25825198672419	0.0128326416015625	5.55985198596272	-0.005963134765625
5.26825198669894	0.01209716796875	5.56985198593748	-0.0049163818359375
5.27825198667369	0.011383056640625	5.57985198591223	-0.00413482666015625
5.28825198664845	0.0107086181640625	5.58985198588698	-0.00352142333984375
5.2982519866232	0.01005859375	5.59985198586173	-0.00303375244140625
5.30825198659795	0.009442138671875	5.60985198583649	-0.00263519287109375
5.3182519865727	0.0088531494140625	5.61985198581124	-0.00206573486328125
5.32825198654746	0.0083038330078125	5.62985198578599	-0.00204803466796875
5.33825198652221	0.007781982421875	5.63985198576074	-0.00182647705078125
5.34825198649696	0.0072967529296875	5.6498519857355	-0.00164276123046875
5.35825198647171	0.0068328857421875	5.65985198571025	-0.001485595703125
5.36825198644647	0.00640869140625	5.669851985685	-0.00135406494140625
5.37825198642122	0.006005859375	5.67985198565975	-0.00124114990234375
5.38825198639597	0.005633544921875	5.6898519856345	-0.001146240234375
5.39825198637072	0.005279541015625	5.69985198560926	-0.00106109619140625
5.40825198634548	0.0049560546875	5.70985198558401	-0.0009881591796875
Time (s)	WE(1).Current (A)	Time (s)	WE(1).Current (A)
5.93886098500582	0.01	6.24042798424443	-0.0390533447265625
5.94886098498057	0.022320556640625	6.25042798421919	-0.035736083984375
5.95886098495532	0.0218292236328125	6.26042798419394	-0.03287353515625
5.96886098493007	0.0213348388671875	6.27042798416869	-0.0303436279296875
5.97886098490483	0.0206878662109375	6.28042798414344	-0.028021240234375
5.98886098487958	0.0199249267578125	6.2904279841182	-0.025762939453125
5.99886098485433	0.019219970703125	6.30042798409295	-0.02352294921875
6.00886098482908	0.018475341796875	6.3104279840677	-0.0212493896484375
6.01886098480384	0.017681884765625	6.32042798404245	-0.018939208984375
6.02886098477859	0.0168487548828125	6.33042798401721	-0.01656494140625
6.03886098475334	0.016015625	6.34042798399196	-0.0141326904296875
6.04886098472809	0.015179443359375	6.35042798396671	-0.0116729736328125
6.05886098470285	0.014373779296875	6.36042798394146	-0.0093475341796875
6.0688609846776	0.0135772705078125	6.37042798391622	-0.0074005126953125
6.07886098465235	0.012811279296875	6.38042798389097	-0.005963134765625
6.0888609846271	0.012066650390625	6.39042798386572	-0.004913330078125
6.09886098460186	0.0113616943359375	6.40042798384047	-0.0041302490234375
6.10886098457661	0.0106842041015625	6.41042798381523	-0.00351837158203125
6.11886098455136	0.0100341796875	6.42042798378998	-0.003031005859375
6.12886098452611	0.009417724609375	6.43042798376473	-0.00263275146484375
6.13886098450087	0.0088348388671875	6.44042798373948	-0.00207489013671875
6.14886098447562	0.008282470703125	6.45042798371423	-0.0020489501953125
6.15886098445037	0.007763671875	6.46042798368899	-0.00182708740234375
6.16886098442512	0.007275390625	6.47042798366374	-0.001639404296875
6.17886098439988	0.006817626953125	6.48042798363849	-0.00148284912109375
6.18886098437463	0.0063873291015625	6.49042798361324	-0.00135223388671875
6.19886098434938	0.005987548828125	6.500427983588	-0.0012408447265625
6.20886098432413	0.0056121826171875	6.51042798356275	-0.0011444091796875
6.21886098429889	0.00526123046875	6.5204279835375	-0.00106109619140625
6.22886098427364	0.004937744140625	6.53042798351225	-0.0009881591796875
Time (s)	WE(1).Current (A)	Time (s)	WE(1).Current (A)
6.78958798285794	0.01	7.09118598209648	-0.039044189453125
6.79958798283269	0.0223297119140625	7.10118598207123	-0.03572998046875
6.80958798280744	0.021820068359375	7.11118598204598	-0.03284912109375
6.8195879827822	0.0213287353515625	7.12118598202073	-0.0303253173828125
6.82958798275695	0.0206634521484375	7.13118598199549	-0.027996826171875
6.8395879827317	0.0199432373046875	7.14118598197024	-0.0257568359375
6.84958798270645	0.0192596435546875	7.15118598194499	-0.0235107421875
6.85958798268121	0.0185028076171875	7.16118598191974	-0.0212432861328125
6.86958798265596	0.017694091796875	7.1711859818945	-0.0189239501953125
6.87958798263071	0.0168609619140625	7.18118598186925	-0.016552734375
6.88958798260546	0.01602783203125	7.191185981844	-0.0141082763671875
6.89958798258021	0.015203857421875	7.20118598181875	-0.0116485595703125
6.90958798255497	0.014398193359375	7.21118598179351	-0.0093170166015625
6.91958798252972	0.013604736328125	7.22118598176826	-0.007379150390625
6.92958798250447	0.012835693359375	7.23118598174301	-0.00594482421875
6.93958798247922	0.0120880126953125	7.24118598171776	-0.0048980712890625
6.94958798245398	0.0113800048828125	7.25118598169252	-0.0041180419921875
6.95958798242873	0.010699462890625	7.26118598166727	-0.0035076904296875
6.96958798240348	0.0100494384765625	7.27118598164202	-0.00301727294921875
6.97958798237823	0.009429931640625	7.28118598161677	-0.0026190185546875
6.98958798235299	0.0088531494140625	7.29118598159153	-0.0020556640625
6.99958798232774	0.0082977294921875	7.30118598156628	-0.0020379638671875
7.00958798230249	0.0077789306640625	7.31118598154103	-0.00181793212890625
7.01958798227724	0.00728759765625	7.32118598151578	-0.0016326904296875
7.029587982252	0.0068328857421875	7.33118598149053	-0.00147796630859375
7.03958798222675	0.0063995361328125	7.34118598146529	-0.0013470458984375
7.0495879822015	0.0060028076171875	7.35118598144004	-0.0012353515625
7.05958798217625	0.0056243896484375	7.36118598141479	-0.00113739013671875
7.06958798215101	0.0052764892578125	7.37118598138954	-0.0010540771484375
7.07958798212576	0.0049468994140625	7.3811859813643	-0.0009808349609375
Time (s)	WE(1).Current (A)	Time (s)	WE(1).Current (A)
7.64087898070864	0.01	7.94245197994724	-0.0390533447265625
7.65087898068339	0.0222930908203125	7.95245197992199	-0.0357513427734375
7.66087898065814	0.021820068359375	7.96245197989674	-0.032867431640625
7.67087898063289	0.0213043212890625	7.97245197987149	-0.03033447265625
7.68087898060764	0.020648193359375	7.98245197984625	-0.0279998779296875
7.6908789805824	0.019964599609375	7.992451979821	-0.0257568359375
7.70087898055715	0.0192962646484375	8.00245197979575	-0.0235107421875
7.7108789805319	0.0185211181640625	8.0124519797705	-0.021240234375
7.72087898050665	0.0177093505859375	8.02245197974526	-0.0189208984375
7.73087898048141	0.0168670654296875	8.03245197972001	-0.0165496826171875
7.74087898045616	0.016033935546875	8.04245197969476	-0.014105224609375
7.75087898043091	0.01519775390625	8.05245197966951	-0.011639404296875
7.76087898040566	0.0143951416015625	8.06245197964427	-0.0093048095703125
7.77087898038042	0.013592529296875	8.07245197961902	-0.0073638916015625
7.78087898035517	0.0128265380859375	8.08245197959377	-0.0059295654296875
7.79087898032992	0.0120758056640625	8.09245197956852	-0.0048828125
7.80087898030467	0.0113739013671875	8.10245197954328	-0.00410430908203125
7.81087898027943	0.0106903076171875	8.11245197951803	-0.0034979248046875
7.82087898025418	0.010040283203125	8.12245197949278	-0.00301361083984375
7.83087898022893	0.0094207763671875	8.13245197946753	-0.0026165771484375
7.84087898020368	0.00885009765625	8.14245197944228	-0.00205322265625
7.85087898017844	0.008294677734375	8.15245197941704	-0.0020343017578125
7.86087898015319	0.00777587890625	8.16245197939179	-0.0018145751953125
7.87087898012794	0.007281494140625	8.17245197936654	-0.0016278076171875
7.88087898010269	0.006829833984375	8.18245197934129	-0.00147216796875
7.89087898007745	0.006396484375	8.19245197931605	-0.00134246826171875
7.9008789800522	0.00599365234375	8.2024519792908	-0.00123260498046875
7.91087898002695	0.005615234375	8.21245197926555	-0.00113616943359375
7.9208789800017	0.0052703857421875	8.2224519792403	-0.00105255126953125
7.93087897997646	0.00494384765625	8.23245197921506	-0.00097991943359375
Time (s)	WE(1).Current (A)	Time (s)	WE(1).Current (A)
8.44620297867539	0.01	8.74785797791378	-0.0390380859375
8.45620297865014	0.0223358154296875	8.75785797788853	-0.03572998046875
8.46620297862489	0.021844482421875	8.76785797786329	-0.0328521728515625
8.47620297859964	0.02132568359375	8.77785797783804	-0.0303192138671875
8.4862029785744	0.02064208984375	8.78785797781279	-0.0279937744140625
8.49620297854915	0.0199554443359375	8.79785797778754	-0.02574462890625
8.5062029785239	0.01927490234375	8.8078579777623	-0.023504638671875
8.51620297849865	0.0184906005859375	8.81785797773705	-0.0212371826171875
8.52620297847341	0.017669677734375	8.8278579777118	-0.0189178466796875
8.53620297844816	0.0168304443359375	8.83785797768655	-0.0165374755859375
8.54620297842291	0.0159912109375	8.84785797766131	-0.01409912109375
8.55620297839766	0.0151580810546875	8.85785797763606	-0.0116424560546875
8.56620297837242	0.0143463134765625	8.86785797761081	-0.0093109130859375
8.57620297834717	0.013555908203125	8.87785797758556	-0.007373046875
8.58620297832192	0.012786865234375	8.88785797756032	-0.0059417724609375
8.59620297829667	0.012042236328125	8.89785797753507	-0.0048980712890625
8.60620297827143	0.0113311767578125	8.90785797750982	-0.00411651611328125
8.61620297824618	0.0106475830078125	8.91785797748457	-0.00350494384765625
8.62620297822093	0.00999755859375	8.92785797745933	-0.00302001953125
8.63620297819568	0.0093780517578125	8.93785797743408	-0.0026226806640625
8.64620297817044	0.008795166015625	8.94785797740883	-0.00205535888671875
8.65620297814519	0.008245849609375	8.95785797738358	-0.00203948974609375
8.66620297811994	0.0077301025390625	8.96785797735834	-0.0018218994140625
8.67620297809469	0.00723876953125	8.97785797733309	-0.00163482666015625
8.68620297806945	0.0067840576171875	8.98785797730784	-0.0014794921875
8.6962029780442	0.0063568115234375	8.99785797728259	-0.00134674072265625
8.70620297801895	0.0059600830078125	9.00785797725734	-0.00123687744140625
8.7162029779937	0.0055816650390625	9.0178579772321	-0.0011395263671875
8.72620297796846	0.00523681640625	9.02785797720685	-0.00105682373046875
8.73620297794321	0.0049102783203125	9.0378579771816	-0.000982666015625
