Potential applied (V)	WE(1).Current (A)
0.01007080078125	-1.2506103515625E-06
0.0201416015625	-1.12701416015625E-06
0.03021240234375	-1.02996826171875E-06
0.040283203125	-9.5001220703125E-07
0.05035400390625	-8.8104248046875E-07
0.0604248046875	-8.2794189453125E-07
0.07049560546875	-7.8094482421875E-07
0.08056640625	-7.366943359375E-07
0.09063720703125	-6.9732666015625E-07
0.1007080078125	-6.610107421875E-07
0.11077880859375	-6.2408447265625E-07
0.120849609375	-5.8502197265625E-07
0.13092041015625	-5.4656982421875E-07
0.1409912109375	-5.0567626953125E-07
0.15106201171875	-4.6051025390625E-07
0.1611328125	-4.0618896484375E-07
0.17120361328125	-3.5552978515625E-07
0.1812744140625	-3.0303955078125E-07
0.19134521484375	-2.41668701171875E-07
0.201416015625	-1.7572021484375E-07
0.21148681640625	-1.083984375E-07
0.2215576171875	-3.6102294921875E-08
0.23162841796875	4.296875E-08
0.24169921875	1.25823974609375E-07
0.25177001953125	2.19940185546875E-07
0.2618408203125	3.22174072265625E-07
0.27191162109375	4.4158935546875E-07
0.281982421875	5.90667724609375E-07
0.29205322265625	7.88055419921875E-07
0.3021240234375	1.05926513671875E-06
0.31219482421875	1.42333984375E-06
0.322265625	1.93511962890625E-06
0.33233642578125	2.6788330078125E-06
0.3424072265625	3.75457763671875E-06
0.35247802734375	5.28045654296875E-06
0.362548828125	7.42462158203125E-06
0.37261962890625	1.0479736328125E-05
0.3826904296875	1.4764404296875E-05
0.39276123046875	2.032470703125E-05
0.40283203125	2.7435302734375E-05
0.41290283203125	3.6114501953125E-05
0.4229736328125	4.630126953125E-05
0.43304443359375	5.69427490234375E-05
0.443115234375	6.66717529296875E-05
0.45318603515625	7.501220703125E-05
0.4632568359375	8.172607421875E-05
0.47332763671875	8.5357666015625E-05
0.4833984375	8.6334228515625E-05
0.49346923828125	8.544921875E-05
0.5035400390625	8.3648681640625E-05
0.51361083984375	8.135986328125E-05
0.523681640625	7.7911376953125E-05
0.53375244140625	7.476806640625E-05
0.5438232421875	7.21435546875E-05
0.55389404296875	6.9427490234375E-05
0.56396484375	6.65283203125E-05
0.57403564453125	6.390380859375E-05
0.5841064453125	6.2042236328125E-05
0.59417724609375	6.0699462890625E-05
0.604248046875	5.8441162109375E-05
0.61431884765625	5.6671142578125E-05
0.6243896484375	5.5908203125E-05
0.63446044921875	5.5084228515625E-05
0.64453125	5.35888671875E-05
0.65460205078125	5.2764892578125E-05
0.6646728515625	5.21240234375E-05
0.67474365234375	5.1971435546875E-05
0.684814453125	5.0933837890625E-05
0.69488525390625	5.035400390625E-05
0.7049560546875	5.029296875E-05
0.69488525390625	4.8052978515625E-05
0.684814453125	4.6514892578125E-05
0.67474365234375	4.53887939453125E-05
0.6646728515625	4.49676513671875E-05
0.65460205078125	4.4342041015625E-05
0.64453125	4.34661865234375E-05
0.63446044921875	4.271240234375E-05
0.6243896484375	4.244384765625E-05
0.61431884765625	4.232177734375E-05
0.604248046875	4.13726806640625E-05
0.59417724609375	4.053955078125E-05
0.5841064453125	4.0301513671875E-05
0.57403564453125	3.99932861328125E-05
0.56396484375	3.92059326171875E-05
0.55389404296875	3.7762451171875E-05
0.5438232421875	3.70391845703125E-05
0.53375244140625	3.58489990234375E-05
0.523681640625	3.3642578125E-05
0.51361083984375	3.092041015625E-05
0.5035400390625	2.7581787109375E-05
0.49346923828125	2.3162841796875E-05
0.4833984375	1.69525146484375E-05
0.47332763671875	9.1583251953125E-06
0.4632568359375	1.0009765625E-07
0.45318603515625	-1.00738525390625E-05
0.443115234375	-2.05902099609375E-05
0.43304443359375	-3.06854248046875E-05
0.4229736328125	-3.90869140625E-05
0.41290283203125	-4.5343017578125E-05
0.40283203125	-4.86785888671875E-05
0.39276123046875	-4.9700927734375E-05
0.3826904296875	-4.89837646484375E-05
0.37261962890625	-4.710693359375E-05
0.362548828125	-4.4378662109375E-05
0.35247802734375	-4.1241455078125E-05
0.3424072265625	-3.84368896484375E-05
0.33233642578125	-3.572998046875E-05
0.322265625	-3.3056640625E-05
0.31219482421875	-3.05389404296875E-05
0.3021240234375	-2.84576416015625E-05
0.29205322265625	-2.66632080078125E-05
0.281982421875	-2.48870849609375E-05
0.27191162109375	-2.32574462890625E-05
0.2618408203125	-2.18902587890625E-05
0.25177001953125	-2.0703125E-05
0.24169921875	-1.95465087890625E-05
0.23162841796875	-1.846923828125E-05
0.2215576171875	-1.75537109375E-05
0.21148681640625	-1.67449951171875E-05
0.201416015625	-1.59515380859375E-05
0.19134521484375	-1.5179443359375E-05
0.1812744140625	-1.45233154296875E-05
0.17120361328125	-1.39495849609375E-05
0.1611328125	-1.3330078125E-05
0.15106201171875	-1.2762451171875E-05
0.1409912109375	-1.22528076171875E-05
0.13092041015625	-1.18133544921875E-05
0.120849609375	-1.1346435546875E-05
0.11077880859375	-1.087646484375E-05
0.1007080078125	-1.04736328125E-05
0.09063720703125	-1.01287841796875E-05
0.08056640625	-9.77783203125E-06
0.07049560546875	-9.41162109375E-06
0.0604248046875	-9.1064453125E-06
0.05035400390625	-8.82568359375E-06
0.040283203125	-8.53271484375E-06
0.03021240234375	-8.233642578125E-06
0.0201416015625	-7.9803466796875E-06
0.01007080078125	-7.7850341796875E-06
0	-7.5592041015625E-06
-0.01007080078125	-7.3211669921875E-06
-0.0201416015625	-7.1380615234375E-06
-0.03021240234375	-6.964111328125E-06
-0.040283203125	-6.787109375E-06
-0.05035400390625	-6.6070556640625E-06
-0.0604248046875	-6.45751953125E-06
-0.07049560546875	-6.341552734375E-06
-0.08056640625	-6.207275390625E-06
-0.09063720703125	-6.0699462890625E-06
-0.1007080078125	-5.9600830078125E-06
-0.11077880859375	-5.8746337890625E-06
-0.120849609375	-5.780029296875E-06
-0.13092041015625	-5.682373046875E-06
-0.1409912109375	-5.596923828125E-06
-0.15106201171875	-5.5450439453125E-06
-0.1611328125	-5.499267578125E-06
-0.17120361328125	-5.426025390625E-06
-0.1812744140625	-5.377197265625E-06
-0.19134521484375	-5.352783203125E-06
-0.201416015625	-5.3253173828125E-06
-0.19134521484375	-4.8675537109375E-06
-0.1812744140625	-4.55596923828125E-06
-0.17120361328125	-4.332275390625E-06
-0.1611328125	-4.1387939453125E-06
-0.15106201171875	-3.96240234375E-06
-0.1409912109375	-3.8043212890625E-06
-0.13092041015625	-3.68743896484375E-06
-0.120849609375	-3.57086181640625E-06
-0.11077880859375	-3.4539794921875E-06
-0.1007080078125	-3.3502197265625E-06
-0.09063720703125	-3.25897216796875E-06
-0.08056640625	-3.1805419921875E-06
-0.07049560546875	-3.099365234375E-06
-0.0604248046875	-3.01849365234375E-06
-0.05035400390625	-2.960205078125E-06
-0.040283203125	-2.89642333984375E-06
-0.03021240234375	-2.82501220703125E-06
-0.0201416015625	-2.75421142578125E-06
-0.01007080078125	-2.6983642578125E-06
0	-2.652587890625E-06
0.01007080078125	-2.58758544921875E-06
0.0201416015625	-2.52349853515625E-06
0.03021240234375	-2.46917724609375E-06
0.040283203125	-2.420654296875E-06
0.05035400390625	-2.35321044921875E-06
0.0604248046875	-2.29034423828125E-06
0.07049560546875	-2.23114013671875E-06
0.08056640625	-2.17315673828125E-06
0.09063720703125	-2.11029052734375E-06
0.1007080078125	-2.03277587890625E-06
0.11077880859375	-1.9683837890625E-06
0.120849609375	-1.89666748046875E-06
0.13092041015625	-1.8157958984375E-06
0.1409912109375	-1.73309326171875E-06
0.15106201171875	-1.6522216796875E-06
0.1611328125	-1.57623291015625E-06
0.17120361328125	-1.49322509765625E-06
0.1812744140625	-1.40716552734375E-06
0.19134521484375	-1.32598876953125E-06
0.201416015625	-1.2506103515625E-06
0.21148681640625	-1.1688232421875E-06
0.2215576171875	-1.0833740234375E-06
0.23162841796875	-1.00738525390625E-06
0.24169921875	-9.2254638671875E-07
0.25177001953125	-8.3099365234375E-07
0.2618408203125	-7.23876953125E-07
0.27191162109375	-6.005859375E-07
0.281982421875	-4.5257568359375E-07
0.29205322265625	-2.52166748046875E-07
0.3021240234375	2.5299072265625E-08
0.31219482421875	4.0252685546875E-07
0.322265625	9.5947265625E-07
0.33233642578125	1.73553466796875E-06
0.3424072265625	2.86163330078125E-06
0.35247802734375	4.4769287109375E-06
0.362548828125	6.8011474609375E-06
0.37261962890625	1.00006103515625E-05
0.3826904296875	1.4404296875E-05
0.39276123046875	2.02911376953125E-05
0.40283203125	2.78045654296875E-05
0.41290283203125	3.670654296875E-05
0.4229736328125	4.66400146484375E-05
0.43304443359375	5.7080078125E-05
0.443115234375	6.70318603515625E-05
0.45318603515625	7.476806640625E-05
0.4632568359375	8.02001953125E-05
0.47332763671875	8.3343505859375E-05
0.4833984375	8.4503173828125E-05
0.49346923828125	8.3465576171875E-05
0.5035400390625	8.087158203125E-05
0.51361083984375	7.781982421875E-05
0.523681640625	7.5103759765625E-05
0.53375244140625	7.18994140625E-05
0.5438232421875	6.84814453125E-05
0.55389404296875	6.6070556640625E-05
0.56396484375	6.396484375E-05
0.57403564453125	6.1553955078125E-05
0.5841064453125	5.9295654296875E-05
0.59417724609375	5.7586669921875E-05
0.604248046875	5.633544921875E-05
0.61431884765625	5.4718017578125E-05
0.6243896484375	5.316162109375E-05
0.63446044921875	5.21240234375E-05
0.64453125	5.1666259765625E-05
0.65460205078125	5.0445556640625E-05
0.6646728515625	4.9407958984375E-05
0.67474365234375	4.86968994140625E-05
0.684814453125	4.81689453125E-05
0.69488525390625	4.7650146484375E-05
0.7049560546875	4.67803955078125E-05
0.69488525390625	4.48211669921875E-05
0.684814453125	4.36370849609375E-05
0.67474365234375	4.25018310546875E-05
0.6646728515625	4.1400146484375E-05
0.65460205078125	4.05914306640625E-05
0.64453125	4.02984619140625E-05
0.63446044921875	3.98162841796875E-05
0.6243896484375	3.88519287109375E-05
0.61431884765625	3.8128662109375E-05
0.604248046875	3.80096435546875E-05
0.59417724609375	3.76068115234375E-05
0.5841064453125	3.66241455078125E-05
0.57403564453125	3.6126708984375E-05
0.56396484375	3.54583740234375E-05
0.55389404296875	3.48419189453125E-05
0.5438232421875	3.3447265625E-05
0.53375244140625	3.21807861328125E-05
0.523681640625	3.070068359375E-05
0.51361083984375	2.825927734375E-05
0.5035400390625	2.48016357421875E-05
0.49346923828125	2.05413818359375E-05
0.4833984375	1.49505615234375E-05
0.47332763671875	7.6690673828125E-06
0.4632568359375	-1.31134033203125E-06
0.45318603515625	-1.13555908203125E-05
0.443115234375	-2.18658447265625E-05
0.43304443359375	-3.1982421875E-05
0.4229736328125	-4.0692138671875E-05
0.41290283203125	-4.71221923828125E-05
0.40283203125	-5.10711669921875E-05
0.39276123046875	-5.26275634765625E-05
0.3826904296875	-5.18768310546875E-05
0.37261962890625	-4.99725341796875E-05
0.362548828125	-4.739990234375E-05
0.35247802734375	-4.46197509765625E-05
0.3424072265625	-4.1510009765625E-05
0.33233642578125	-3.85162353515625E-05
0.322265625	-3.592529296875E-05
0.31219482421875	-3.3538818359375E-05
0.3021240234375	-3.12591552734375E-05
0.29205322265625	-2.92205810546875E-05
0.281982421875	-2.752685546875E-05
0.27191162109375	-2.601318359375E-05
0.2618408203125	-2.452392578125E-05
0.25177001953125	-2.32025146484375E-05
0.24169921875	-2.2052001953125E-05
0.23162841796875	-2.10662841796875E-05
0.2215576171875	-2.00653076171875E-05
0.21148681640625	-1.91436767578125E-05
0.201416015625	-1.8353271484375E-05
0.19134521484375	-1.76727294921875E-05
0.1812744140625	-1.69677734375E-05
0.17120361328125	-1.62933349609375E-05
0.1611328125	-1.57379150390625E-05
0.15106201171875	-1.52008056640625E-05
0.1409912109375	-1.46728515625E-05
0.13092041015625	-1.41357421875E-05
0.120849609375	-1.3671875E-05
0.11077880859375	-1.32965087890625E-05
0.1007080078125	-1.28509521484375E-05
0.09063720703125	-1.24298095703125E-05
0.08056640625	-1.2054443359375E-05
0.07049560546875	-1.1724853515625E-05
0.0604248046875	-1.1376953125E-05
0.05035400390625	-1.10015869140625E-05
0.040283203125	-1.06964111328125E-05
0.03021240234375	-1.04248046875E-05
0.0201416015625	-1.01318359375E-05
0.01007080078125	-9.8419189453125E-06
0	-9.58251953125E-06
-0.01007080078125	-9.3597412109375E-06
-0.0201416015625	-9.1094970703125E-06
-0.03021240234375	-8.868408203125E-06
-0.040283203125	-8.6395263671875E-06
-0.05035400390625	-8.4716796875E-06
-0.0604248046875	-8.28857421875E-06
-0.07049560546875	-8.0841064453125E-06
-0.08056640625	-7.9193115234375E-06
-0.09063720703125	-7.763671875E-06
-0.1007080078125	-7.62939453125E-06
-0.11077880859375	-7.4676513671875E-06
-0.120849609375	-7.3333740234375E-06
-0.13092041015625	-7.2296142578125E-06
-0.1409912109375	-7.110595703125E-06
-0.15106201171875	-6.988525390625E-06
-0.1611328125	-6.8817138671875E-06
-0.17120361328125	-6.8023681640625E-06
-0.1812744140625	-6.7230224609375E-06
-0.19134521484375	-6.62841796875E-06
-0.201416015625	-6.561279296875E-06
-0.19134521484375	-6.1187744140625E-06
-0.1812744140625	-5.810546875E-06
-0.17120361328125	-5.5328369140625E-06
-0.1611328125	-5.3070068359375E-06
-0.15106201171875	-5.120849609375E-06
-0.1409912109375	-4.9407958984375E-06
-0.13092041015625	-4.779052734375E-06
-0.120849609375	-4.62066650390625E-06
-0.11077880859375	-4.4989013671875E-06
-0.1007080078125	-4.3768310546875E-06
-0.09063720703125	-4.23858642578125E-06
-0.08056640625	-4.12139892578125E-06
-0.07049560546875	-4.0155029296875E-06
-0.0604248046875	-3.92608642578125E-06
-0.05035400390625	-3.81744384765625E-06
-0.040283203125	-3.7139892578125E-06
-0.03021240234375	-3.62060546875E-06
-0.0201416015625	-3.53759765625E-06
-0.01007080078125	-3.44940185546875E-06
0	-3.350830078125E-06
0.01007080078125	-3.27789306640625E-06
0.0201416015625	-3.1903076171875E-06
0.03021240234375	-3.1036376953125E-06
0.040283203125	-3.00933837890625E-06
0.05035400390625	-2.92205810546875E-06
0.0604248046875	-2.8436279296875E-06
0.07049560546875	-2.7459716796875E-06
0.08056640625	-2.65350341796875E-06
0.09063720703125	-2.56439208984375E-06
0.1007080078125	-2.47344970703125E-06
0.11077880859375	-2.37213134765625E-06
0.120849609375	-2.2705078125E-06
0.13092041015625	-2.17803955078125E-06
0.1409912109375	-2.091064453125E-06
0.15106201171875	-1.9976806640625E-06
0.1611328125	-1.89788818359375E-06
0.17120361328125	-1.807861328125E-06
0.1812744140625	-1.722412109375E-06
0.19134521484375	-1.636962890625E-06
0.201416015625	-1.54998779296875E-06
0.21148681640625	-1.46514892578125E-06
0.2215576171875	-1.3934326171875E-06
0.23162841796875	-1.3134765625E-06
0.24169921875	-1.21917724609375E-06
0.25177001953125	-1.12823486328125E-06
0.2618408203125	-1.026611328125E-06
0.27191162109375	-9.06982421875E-07
0.281982421875	-7.501220703125E-07
0.29205322265625	-5.45654296875E-07
0.3021240234375	-2.63824462890625E-07
0.31219482421875	1.2896728515625E-07
0.322265625	7.0220947265625E-07
0.33233642578125	1.51123046875E-06
0.3424072265625	2.68951416015625E-06
0.35247802734375	4.35333251953125E-06
0.362548828125	6.72271728515625E-06
0.37261962890625	1.00555419921875E-05
0.3826904296875	1.4654541015625E-05
0.39276123046875	2.06695556640625E-05
0.40283203125	2.82470703125E-05
0.41290283203125	3.72894287109375E-05
0.4229736328125	4.75311279296875E-05
0.43304443359375	5.7989501953125E-05
0.443115234375	6.74285888671875E-05
0.45318603515625	7.513427734375E-05
0.4632568359375	8.0841064453125E-05
0.47332763671875	8.380126953125E-05
0.4833984375	8.4075927734375E-05
0.49346923828125	8.2794189453125E-05
0.5035400390625	8.06884765625E-05
0.51361083984375	7.7728271484375E-05
0.523681640625	7.4249267578125E-05
0.53375244140625	7.1014404296875E-05
0.5438232421875	6.82373046875E-05
0.55389404296875	6.5765380859375E-05
0.56396484375	6.304931640625E-05
0.57403564453125	6.072998046875E-05
0.5841064453125	5.89599609375E-05
0.59417724609375	5.7281494140625E-05
0.604248046875	5.535888671875E-05
0.61431884765625	5.3955078125E-05
0.6243896484375	5.28564453125E-05
0.63446044921875	5.218505859375E-05
0.64453125	5.09033203125E-05
0.65460205078125	4.96826171875E-05
0.6646728515625	4.90570068359375E-05
0.67474365234375	4.859619140625E-05
0.684814453125	4.76165771484375E-05
0.69488525390625	4.681396484375E-05
0.7049560546875	4.65850830078125E-05
0.69488525390625	4.43878173828125E-05
0.684814453125	4.27093505859375E-05
0.67474365234375	4.149169921875E-05
0.6646728515625	4.0802001953125E-05
0.65460205078125	4.0203857421875E-05
0.64453125	3.93341064453125E-05
0.63446044921875	3.86138916015625E-05
0.6243896484375	3.8177490234375E-05
0.61431884765625	3.76983642578125E-05
0.604248046875	3.7152099609375E-05
0.59417724609375	3.646240234375E-05
0.5841064453125	3.60992431640625E-05
0.57403564453125	3.56719970703125E-05
0.56396484375	3.47991943359375E-05
0.55389404296875	3.3990478515625E-05
0.5438232421875	3.31085205078125E-05
0.53375244140625	3.1890869140625E-05
0.523681640625	3.01788330078125E-05
0.51361083984375	2.77099609375E-05
0.5035400390625	2.4749755859375E-05
0.49346923828125	2.0648193359375E-05
0.4833984375	1.49871826171875E-05
0.47332763671875	7.6446533203125E-06
0.4632568359375	-9.5428466796875E-07
0.45318603515625	-1.0833740234375E-05
0.443115234375	-2.135009765625E-05
0.43304443359375	-3.15643310546875E-05
0.4229736328125	-4.05426025390625E-05
0.41290283203125	-4.72137451171875E-05
0.40283203125	-5.12542724609375E-05
0.39276123046875	-5.27587890625E-05
0.3826904296875	-5.23406982421875E-05
0.37261962890625	-5.06744384765625E-05
0.362548828125	-4.796142578125E-05
0.35247802734375	-4.48944091796875E-05
0.3424072265625	-4.18060302734375E-05
0.33233642578125	-3.89862060546875E-05
0.322265625	-3.626708984375E-05
0.31219482421875	-3.3697509765625E-05
0.3021240234375	-3.14971923828125E-05
0.29205322265625	-2.95440673828125E-05
0.281982421875	-2.77587890625E-05
0.27191162109375	-2.61016845703125E-05
0.2618408203125	-2.46673583984375E-05
0.25177001953125	-2.34710693359375E-05
0.24169921875	-2.22747802734375E-05
0.23162841796875	-2.11395263671875E-05
0.2215576171875	-2.01629638671875E-05
0.21148681640625	-1.937255859375E-05
0.201416015625	-1.85638427734375E-05
0.19134521484375	-1.77398681640625E-05
0.1812744140625	-1.7022705078125E-05
0.17120361328125	-1.640625E-05
0.1611328125	-1.58294677734375E-05
0.15106201171875	-1.519775390625E-05
0.1409912109375	-1.466064453125E-05
0.13092041015625	-1.41845703125E-05
0.120849609375	-1.3714599609375E-05
0.11077880859375	-1.3250732421875E-05
0.1007080078125	-1.279296875E-05
0.09063720703125	-1.24176025390625E-05
0.08056640625	-1.2042236328125E-05
0.07049560546875	-1.1627197265625E-05
0.0604248046875	-1.1236572265625E-05
0.05035400390625	-1.0919189453125E-05
0.040283203125	-1.06109619140625E-05
0.03021240234375	-1.02508544921875E-05
0.0201416015625	-9.9334716796875E-06
0.01007080078125	-9.649658203125E-06
0	-9.38720703125E-06
-0.01007080078125	-9.0911865234375E-06
-0.0201416015625	-8.807373046875E-06
-0.03021240234375	-8.59375E-06
-0.040283203125	-8.36181640625E-06
-0.05035400390625	-8.1085205078125E-06
-0.0604248046875	-7.8826904296875E-06
-0.07049560546875	-7.6904296875E-06
-0.08056640625	-7.51953125E-06
-0.09063720703125	-7.3150634765625E-06
-0.1007080078125	-7.12890625E-06
-0.11077880859375	-6.9793701171875E-06
-0.120849609375	-6.854248046875E-06
-0.13092041015625	-6.7047119140625E-06
-0.1409912109375	-6.5765380859375E-06
-0.15106201171875	-6.463623046875E-06
-0.1611328125	-6.3568115234375E-06
-0.17120361328125	-6.2591552734375E-06
-0.1812744140625	-6.1492919921875E-06
-0.19134521484375	-6.085205078125E-06
-0.201416015625	-6.036376953125E-06
-0.19134521484375	-5.5694580078125E-06
-0.1812744140625	-5.2520751953125E-06
-0.17120361328125	-4.9957275390625E-06
-0.1611328125	-4.8004150390625E-06
-0.15106201171875	-4.6240234375E-06
-0.1409912109375	-4.43511962890625E-06
-0.13092041015625	-4.29229736328125E-06
-0.120849609375	-4.16290283203125E-06
-0.11077880859375	-4.0374755859375E-06
-0.1007080078125	-3.90838623046875E-06
-0.09063720703125	-3.7969970703125E-06
-0.08056640625	-3.7005615234375E-06
-0.07049560546875	-3.59527587890625E-06
-0.0604248046875	-3.487548828125E-06
-0.05035400390625	-3.387451171875E-06
-0.040283203125	-3.3074951171875E-06
-0.03021240234375	-3.218994140625E-06
-0.0201416015625	-3.11767578125E-06
-0.01007080078125	-3.03375244140625E-06
0	-2.94769287109375E-06
0.01007080078125	-2.862548828125E-06
0.0201416015625	-2.76336669921875E-06
0.03021240234375	-2.66998291015625E-06
0.040283203125	-2.59521484375E-06
0.05035400390625	-2.498779296875E-06
0.0604248046875	-2.4053955078125E-06
0.07049560546875	-2.30926513671875E-06
0.08056640625	-2.22686767578125E-06
0.09063720703125	-2.127685546875E-06
0.1007080078125	-2.02423095703125E-06
0.11077880859375	-1.92474365234375E-06
0.120849609375	-1.8389892578125E-06
0.13092041015625	-1.75872802734375E-06
0.1409912109375	-1.65802001953125E-06
0.15106201171875	-1.575927734375E-06
0.1611328125	-1.49383544921875E-06
0.17120361328125	-1.414794921875E-06
0.1812744140625	-1.3336181640625E-06
0.19134521484375	-1.25152587890625E-06
0.201416015625	-1.19537353515625E-06
0.21148681640625	-1.1309814453125E-06
0.2215576171875	-1.0595703125E-06
0.23162841796875	-9.9029541015625E-07
0.24169921875	-9.1949462890625E-07
0.25177001953125	-8.49609375E-07
0.2618408203125	-7.5439453125E-07
0.27191162109375	-6.38427734375E-07
0.281982421875	-4.94384765625E-07
0.29205322265625	-2.9693603515625E-07
0.3021240234375	-1.79443359375E-08
0.31219482421875	3.8238525390625E-07
0.322265625	9.66796875E-07
0.33233642578125	1.7962646484375E-06
0.3424072265625	2.9998779296875E-06
0.35247802734375	4.7186279296875E-06
0.362548828125	7.197265625E-06
0.37261962890625	1.0626220703125E-05
0.3826904296875	1.52923583984375E-05
0.39276123046875	2.138671875E-05
0.40283203125	2.923583984375E-05
0.41290283203125	3.8470458984375E-05
0.4229736328125	4.86114501953125E-05
0.43304443359375	5.88836669921875E-05
0.443115234375	6.85638427734375E-05
0.45318603515625	7.6385498046875E-05
0.4632568359375	8.14208984375E-05
0.47332763671875	8.3892822265625E-05
0.4833984375	8.4320068359375E-05
0.49346923828125	8.3160400390625E-05
0.5035400390625	8.0596923828125E-05
0.51361083984375	7.7362060546875E-05
0.523681640625	7.4310302734375E-05
0.53375244140625	7.1502685546875E-05
0.5438232421875	6.8359375E-05
0.55389404296875	6.5338134765625E-05
0.56396484375	6.298828125E-05
0.57403564453125	6.109619140625E-05
0.5841064453125	5.8868408203125E-05
0.59417724609375	5.6884765625E-05
0.604248046875	5.535888671875E-05
0.61431884765625	5.4290771484375E-05
0.6243896484375	5.2734375E-05
0.63446044921875	5.145263671875E-05
0.64453125	5.0567626953125E-05
0.65460205078125	4.974365234375E-05
0.6646728515625	4.8876953125E-05
0.67474365234375	4.7906494140625E-05
0.684814453125	4.72808837890625E-05
0.69488525390625	4.7015380859375E-05
0.7049560546875	4.64813232421875E-05
0.69488525390625	4.3817138671875E-05
0.684814453125	4.2388916015625E-05
0.67474365234375	4.15557861328125E-05
0.6646728515625	4.0655517578125E-05
0.65460205078125	3.9825439453125E-05
0.64453125	3.9013671875E-05
0.63446044921875	3.88092041015625E-05
0.6243896484375	3.83056640625E-05
0.61431884765625	3.7481689453125E-05
0.604248046875	3.70941162109375E-05
0.59417724609375	3.671875E-05
0.5841064453125	3.62548828125E-05
0.57403564453125	3.5516357421875E-05
0.56396484375	3.4735107421875E-05
0.55389404296875	3.42559814453125E-05
0.5438232421875	3.3367919921875E-05
0.53375244140625	3.187255859375E-05
0.523681640625	3.016357421875E-05
0.51361083984375	2.81280517578125E-05
0.5035400390625	2.503662109375E-05
0.49346923828125	2.08099365234375E-05
0.4833984375	1.52557373046875E-05
0.47332763671875	8.2183837890625E-06
0.4632568359375	-2.40478515625E-07
0.45318603515625	-1.02203369140625E-05
0.443115234375	-2.06817626953125E-05
0.43304443359375	-3.0975341796875E-05
0.4229736328125	-4.00665283203125E-05
0.41290283203125	-4.67437744140625E-05
0.40283203125	-5.1025390625E-05
0.39276123046875	-5.28350830078125E-05
0.3826904296875	-5.2557373046875E-05
0.37261962890625	-5.0787353515625E-05
0.362548828125	-4.80560302734375E-05
0.35247802734375	-4.51446533203125E-05
0.3424072265625	-4.21173095703125E-05
0.33233642578125	-3.9111328125E-05
0.322265625	-3.62762451171875E-05
0.31219482421875	-3.38623046875E-05
0.3021240234375	-3.17169189453125E-05
0.29205322265625	-2.9632568359375E-05
0.281982421875	-2.77984619140625E-05
0.27191162109375	-2.615966796875E-05
0.2618408203125	-2.47589111328125E-05
0.25177001953125	-2.3406982421875E-05
0.24169921875	-2.21649169921875E-05
0.23162841796875	-2.1124267578125E-05
0.2215576171875	-2.01873779296875E-05
0.21148681640625	-1.93023681640625E-05
0.201416015625	-1.8426513671875E-05
0.19134521484375	-1.766357421875E-05
0.1812744140625	-1.70196533203125E-05
0.17120361328125	-1.63482666015625E-05
0.1611328125	-1.56951904296875E-05
0.15106201171875	-1.5106201171875E-05
0.1409912109375	-1.46392822265625E-05
0.13092041015625	-1.412353515625E-05
0.120849609375	-1.361083984375E-05
0.11077880859375	-1.3153076171875E-05
0.1007080078125	-1.2744140625E-05
0.09063720703125	-1.23321533203125E-05
0.08056640625	-1.190185546875E-05
0.07049560546875	-1.153564453125E-05
0.0604248046875	-1.12060546875E-05
0.05035400390625	-1.08612060546875E-05
0.040283203125	-1.05010986328125E-05
0.03021240234375	-1.01806640625E-05
0.0201416015625	-9.8876953125E-06
0.01007080078125	-9.58251953125E-06
0	-9.2620849609375E-06
-0.01007080078125	-8.97216796875E-06
-0.0201416015625	-8.734130859375E-06
-0.03021240234375	-8.477783203125E-06
-0.040283203125	-8.197021484375E-06
-0.05035400390625	-7.958984375E-06
-0.0604248046875	-7.75146484375E-06
-0.07049560546875	-7.5469970703125E-06
-0.08056640625	-7.32421875E-06
-0.09063720703125	-7.122802734375E-06
-0.1007080078125	-6.9671630859375E-06
-0.11077880859375	-6.7962646484375E-06
-0.120849609375	-6.62841796875E-06
-0.13092041015625	-6.4697265625E-06
-0.1409912109375	-6.34765625E-06
-0.15106201171875	-6.2286376953125E-06
-0.1611328125	-6.0943603515625E-06
-0.17120361328125	-5.9844970703125E-06
-0.1812744140625	-5.9051513671875E-06
-0.19134521484375	-5.82275390625E-06
-0.201416015625	-5.7342529296875E-06
-0.19134521484375	-5.2886962890625E-06
-0.1812744140625	-4.9774169921875E-06
-0.17120361328125	-4.730224609375E-06
-0.1611328125	-4.512939453125E-06
-0.15106201171875	-4.31732177734375E-06
-0.1409912109375	-4.16717529296875E-06
-0.13092041015625	-4.0203857421875E-06
-0.120849609375	-3.87603759765625E-06
-0.11077880859375	-3.75335693359375E-06
-0.1007080078125	-3.63494873046875E-06
-0.09063720703125	-3.53363037109375E-06
-0.08056640625	-3.431396484375E-06
-0.07049560546875	-3.3197021484375E-06
-0.0604248046875	-3.22784423828125E-06
-0.05035400390625	-3.13873291015625E-06
-0.040283203125	-3.0450439453125E-06
-0.03021240234375	-2.95379638671875E-06
-0.0201416015625	-2.8680419921875E-06
-0.01007080078125	-2.781982421875E-06
0	-2.694091796875E-06
0.01007080078125	-2.60223388671875E-06
0.0201416015625	-2.5201416015625E-06
0.03021240234375	-2.4371337890625E-06
0.040283203125	-2.34344482421875E-06
0.05035400390625	-2.2613525390625E-06
0.0604248046875	-2.1734619140625E-06
0.07049560546875	-2.0880126953125E-06
0.08056640625	-2.00286865234375E-06
0.09063720703125	-1.90460205078125E-06
0.1007080078125	-1.82281494140625E-06
0.11077880859375	-1.7413330078125E-06
0.120849609375	-1.66412353515625E-06
0.13092041015625	-1.58416748046875E-06
0.1409912109375	-1.50726318359375E-06
0.15106201171875	-1.4385986328125E-06
0.1611328125	-1.3690185546875E-06
0.17120361328125	-1.29425048828125E-06
0.1812744140625	-1.23382568359375E-06
0.19134521484375	-1.18682861328125E-06
0.201416015625	-1.12701416015625E-06
0.21148681640625	-1.07147216796875E-06
0.2215576171875	-1.01531982421875E-06
0.23162841796875	-9.6466064453125E-07
0.24169921875	-9.06982421875E-07
0.25177001953125	-8.2916259765625E-07
0.2618408203125	-7.513427734375E-07
0.27191162109375	-6.53076171875E-07
0.281982421875	-5.133056640625E-07
0.29205322265625	-3.1158447265625E-07
0.3021240234375	-2.5787353515625E-08
0.31219482421875	3.64990234375E-07
0.322265625	9.6160888671875E-07
0.33233642578125	1.8096923828125E-06
0.3424072265625	3.0462646484375E-06
0.35247802734375	4.80987548828125E-06
0.362548828125	7.31414794921875E-06
0.37261962890625	1.07879638671875E-05
0.3826904296875	1.55609130859375E-05
0.39276123046875	2.18414306640625E-05
0.40283203125	2.9736328125E-05
0.41290283203125	3.8916015625E-05
0.4229736328125	4.90966796875E-05
0.43304443359375	5.975341796875E-05
0.443115234375	6.9342041015625E-05
0.45318603515625	7.6568603515625E-05
0.4632568359375	8.154296875E-05
0.47332763671875	8.4228515625E-05
0.4833984375	8.45947265625E-05
0.49346923828125	8.2794189453125E-05
0.5035400390625	8.0108642578125E-05
0.51361083984375	7.733154296875E-05
0.523681640625	7.4249267578125E-05
0.53375244140625	7.086181640625E-05
0.5438232421875	6.7779541015625E-05
0.55389404296875	6.536865234375E-05
0.56396484375	6.2896728515625E-05
0.57403564453125	6.0455322265625E-05
0.5841064453125	5.8349609375E-05
0.59417724609375	5.6610107421875E-05
0.604248046875	5.5206298828125E-05
0.61431884765625	5.364990234375E-05
0.6243896484375	5.2276611328125E-05
0.63446044921875	5.126953125E-05
0.64453125	5.035400390625E-05
0.65460205078125	4.93682861328125E-05
0.6646728515625	4.82879638671875E-05
0.67474365234375	4.783935546875E-05
0.684814453125	4.7412109375E-05
0.69488525390625	4.67254638671875E-05
0.7049560546875	4.61944580078125E-05
0.69488525390625	4.37530517578125E-05
0.684814453125	4.25872802734375E-05
0.67474365234375	4.1424560546875E-05
0.6646728515625	4.03533935546875E-05
0.65460205078125	3.9801025390625E-05
0.64453125	3.9251708984375E-05
0.63446044921875	3.8525390625E-05
0.6243896484375	3.7890625E-05
0.61431884765625	3.74267578125E-05
0.604248046875	3.71612548828125E-05
0.59417724609375	3.6474609375E-05
0.5841064453125	3.5797119140625E-05
0.57403564453125	3.541259765625E-05
0.56396484375	3.480224609375E-05
0.55389404296875	3.38958740234375E-05
0.5438232421875	3.297119140625E-05
0.53375244140625	3.16009521484375E-05
0.523681640625	3.033447265625E-05
0.51361083984375	2.79876708984375E-05
0.5035400390625	2.4822998046875E-05
0.49346923828125	2.0709228515625E-05
0.4833984375	1.534423828125E-05
0.47332763671875	8.453369140625E-06
0.4632568359375	-1.0040283203125E-07
0.45318603515625	-1.00189208984375E-05
0.443115234375	-2.04498291015625E-05
0.43304443359375	-3.07952880859375E-05
0.4229736328125	-3.9837646484375E-05
0.41290283203125	-4.68017578125E-05
0.40283203125	-5.126953125E-05
0.39276123046875	-5.3106689453125E-05
0.3826904296875	-5.26702880859375E-05
0.37261962890625	-5.1025390625E-05
0.362548828125	-4.85687255859375E-05
0.35247802734375	-4.5477294921875E-05
0.3424072265625	-4.22607421875E-05
0.33233642578125	-3.9306640625E-05
0.322265625	-3.668212890625E-05
0.31219482421875	-3.4149169921875E-05
0.3021240234375	-3.1805419921875E-05
0.29205322265625	-2.97393798828125E-05
0.281982421875	-2.79876708984375E-05
0.27191162109375	-2.63885498046875E-05
0.2618408203125	-2.48504638671875E-05
0.25177001953125	-2.3541259765625E-05
0.24169921875	-2.24029541015625E-05
0.23162841796875	-2.1368408203125E-05
0.2215576171875	-2.03582763671875E-05
0.21148681640625	-1.94549560546875E-05
0.201416015625	-1.87103271484375E-05
0.19134521484375	-1.79595947265625E-05
0.1812744140625	-1.72088623046875E-05
0.17120361328125	-1.6534423828125E-05
0.1611328125	-1.59881591796875E-05
0.15106201171875	-1.5460205078125E-05
0.1409912109375	-1.48956298828125E-05
0.13092041015625	-1.43798828125E-05
0.120849609375	-1.39404296875E-05
0.11077880859375	-1.35345458984375E-05
0.1007080078125	-1.30767822265625E-05
0.09063720703125	-1.268310546875E-05
0.08056640625	-1.23291015625E-05
0.07049560546875	-1.197509765625E-05
0.0604248046875	-1.162109375E-05
0.05035400390625	-1.12762451171875E-05
0.040283203125	-1.0992431640625E-05
0.03021240234375	-1.0711669921875E-05
0.0201416015625	-1.03912353515625E-05
0.01007080078125	-1.0089111328125E-05
0	-9.8297119140625E-06
-0.01007080078125	-9.5916748046875E-06
-0.0201416015625	-9.31396484375E-06
-0.03021240234375	-9.04541015625E-06
-0.040283203125	-8.82568359375E-06
-0.05035400390625	-8.624267578125E-06
-0.0604248046875	-8.3831787109375E-06
-0.07049560546875	-8.1634521484375E-06
-0.08056640625	-7.9864501953125E-06
-0.09063720703125	-7.8033447265625E-06
-0.1007080078125	-7.623291015625E-06
-0.11077880859375	-7.4493408203125E-06
-0.120849609375	-7.32421875E-06
-0.13092041015625	-7.1868896484375E-06
-0.1409912109375	-7.037353515625E-06
-0.15106201171875	-6.9091796875E-06
-0.1611328125	-6.8023681640625E-06
-0.17120361328125	-6.7291259765625E-06
-0.1812744140625	-6.6314697265625E-06
-0.19134521484375	-6.5338134765625E-06
-0.201416015625	-6.48193359375E-06
-0.19134521484375	-6.0577392578125E-06
-0.1812744140625	-5.7403564453125E-06
-0.17120361328125	-5.4840087890625E-06
-0.1611328125	-5.2978515625E-06
-0.15106201171875	-5.1300048828125E-06
-0.1409912109375	-4.9774169921875E-06
-0.13092041015625	-4.8187255859375E-06
-0.120849609375	-4.7027587890625E-06
-0.11077880859375	-4.60205078125E-06
-0.1007080078125	-4.48089599609375E-06
-0.09063720703125	-4.36492919921875E-06
-0.08056640625	-4.259033203125E-06
-0.07049560546875	-4.1796875E-06
-0.0604248046875	-4.083251953125E-06
-0.05035400390625	-3.9727783203125E-06
-0.040283203125	-3.88885498046875E-06
-0.03021240234375	-3.80767822265625E-06
-0.0201416015625	-3.69720458984375E-06
-0.01007080078125	-3.6090087890625E-06
0	-3.5223388671875E-06
