Potential applied (V)	WE(1).Current (A)
0.01007080078125	6.7840576171875E-07
0.0201416015625	4.6600341796875E-07
0.03021240234375	3.5400390625E-07
0.040283203125	2.8472900390625E-07
0.05035400390625	2.3980712890625E-07
0.0604248046875	2.07061767578125E-07
0.07049560546875	1.8426513671875E-07
0.08056640625	1.6693115234375E-07
0.09063720703125	1.52984619140625E-07
0.1007080078125	1.4373779296875E-07
0.11077880859375	1.35650634765625E-07
0.120849609375	1.29058837890625E-07
0.13092041015625	1.23077392578125E-07
0.1409912109375	1.18896484375E-07
0.15106201171875	1.1566162109375E-07
0.1611328125	1.121826171875E-07
0.17120361328125	1.10992431640625E-07
0.1812744140625	1.07818603515625E-07
0.19134521484375	1.085205078125E-07
0.201416015625	1.0833740234375E-07
0.21148681640625	1.09771728515625E-07
0.2215576171875	1.09466552734375E-07
0.23162841796875	1.11419677734375E-07
0.24169921875	1.1248779296875E-07
0.25177001953125	1.1553955078125E-07
0.2618408203125	1.1981201171875E-07
0.27191162109375	1.2347412109375E-07
0.281982421875	1.2689208984375E-07
0.29205322265625	1.33270263671875E-07
0.3021240234375	1.4056396484375E-07
0.31219482421875	1.4752197265625E-07
0.322265625	1.5570068359375E-07
0.33233642578125	1.658935546875E-07
0.3424072265625	1.78619384765625E-07
0.35247802734375	1.89056396484375E-07
0.362548828125	2.05963134765625E-07
0.37261962890625	2.25616455078125E-07
0.3826904296875	2.5048828125E-07
0.39276123046875	2.81097412109375E-07
0.40283203125	3.153076171875E-07
0.41290283203125	3.62579345703125E-07
0.4229736328125	4.2254638671875E-07
0.43304443359375	4.9951171875E-07
0.443115234375	5.9307861328125E-07
0.45318603515625	6.88690185546875E-07
0.4632568359375	7.6080322265625E-07
0.47332763671875	8.0841064453125E-07
0.4833984375	8.72802734375E-07
0.49346923828125	9.86328125E-07
0.5035400390625	1.131591796875E-06
0.51361083984375	1.28173828125E-06
0.523681640625	1.41143798828125E-06
0.53375244140625	1.51763916015625E-06
0.5438232421875	1.61346435546875E-06
0.55389404296875	1.712646484375E-06
0.56396484375	1.8798828125E-06
0.57403564453125	2.07244873046875E-06
0.5841064453125	2.27081298828125E-06
0.59417724609375	2.49237060546875E-06
0.604248046875	2.7288818359375E-06
0.61431884765625	2.90863037109375E-06
0.6243896484375	3.07525634765625E-06
0.63446044921875	3.2208251953125E-06
0.64453125	3.36456298828125E-06
0.65460205078125	3.4686279296875E-06
0.6646728515625	3.54705810546875E-06
0.67474365234375	3.62823486328125E-06
0.684814453125	3.719482421875E-06
0.69488525390625	3.82843017578125E-06
0.7049560546875	3.9678955078125E-06
0.71502685546875	4.1400146484375E-06
0.72509765625	4.3133544921875E-06
0.73516845703125	4.60357666015625E-06
0.7452392578125	4.87396240234375E-06
0.75531005859375	5.13031005859375E-06
0.765380859375	5.41748046875E-06
0.77545166015625	5.7318115234375E-06
0.7855224609375	6.04278564453125E-06
0.79559326171875	6.402587890625E-06
0.8056640625	6.7657470703125E-06
0.81573486328125	7.086181640625E-06
0.8258056640625	7.45849609375E-06
0.83587646484375	7.9345703125E-06
0.845947265625	8.251953125E-06
0.85601806640625	8.4381103515625E-06
0.8660888671875	8.624267578125E-06
0.87615966796875	8.7799072265625E-06
0.88623046875	9.0240478515625E-06
0.89630126953125	9.1796875E-06
0.9063720703125	9.3353271484375E-06
0.91644287109375	9.4482421875E-06
0.926513671875	9.5855712890625E-06
0.93658447265625	9.844970703125E-06
0.9466552734375	1.00860595703125E-05
0.95672607421875	1.02935791015625E-05
0.966796875	1.05194091796875E-05
0.97686767578125	1.06658935546875E-05
0.9869384765625	1.085205078125E-05
0.99700927734375	1.10076904296875E-05
1.007080078125	1.11419677734375E-05
1.01715087890625	1.13037109375E-05
1.0272216796875	1.15478515625E-05
1.03729248046875	1.17828369140625E-05
1.04736328125	1.2152099609375E-05
1.05743408203125	1.24298095703125E-05
1.0675048828125	1.27685546875E-05
1.07757568359375	1.30096435546875E-05
1.087646484375	1.31988525390625E-05
1.09771728515625	1.3421630859375E-05
1.1077880859375	1.34796142578125E-05
1.11785888671875	1.35955810546875E-05
1.1279296875	1.3519287109375E-05
1.13800048828125	1.346435546875E-05
1.1480712890625	1.3433837890625E-05
1.15814208984375	1.33880615234375E-05
1.168212890625	1.34063720703125E-05
1.17828369140625	1.35772705078125E-05
1.1883544921875	1.39312744140625E-05
1.19842529296875	1.42852783203125E-05
1.20849609375	1.48345947265625E-05
1.19842529296875	1.09588623046875E-05
1.1883544921875	8.721923828125E-06
1.17828369140625	7.12890625E-06
1.168212890625	5.92041015625E-06
1.15814208984375	5.0933837890625E-06
1.1480712890625	4.3365478515625E-06
1.13800048828125	3.64227294921875E-06
1.1279296875	3.13385009765625E-06
1.11785888671875	2.652587890625E-06
1.1077880859375	2.2198486328125E-06
1.09771728515625	1.82220458984375E-06
1.087646484375	1.44012451171875E-06
1.07757568359375	1.09893798828125E-06
1.0675048828125	7.9742431640625E-07
1.05743408203125	4.2510986328125E-07
1.04736328125	1.01318359375E-07
1.03729248046875	-1.35498046875E-07
1.0272216796875	-4.7454833984375E-07
1.01715087890625	-7.5164794921875E-07
1.007080078125	-1.025390625E-06
0.99700927734375	-1.28997802734375E-06
0.9869384765625	-1.57928466796875E-06
0.97686767578125	-1.91741943359375E-06
0.966796875	-2.1514892578125E-06
0.95672607421875	-2.420654296875E-06
0.9466552734375	-2.71728515625E-06
0.93658447265625	-2.9296875E-06
0.926513671875	-3.0926513671875E-06
0.91644287109375	-3.28155517578125E-06
0.9063720703125	-3.40179443359375E-06
0.89630126953125	-3.42193603515625E-06
0.88623046875	-3.5003662109375E-06
0.87615966796875	-3.5540771484375E-06
0.8660888671875	-3.6102294921875E-06
0.85601806640625	-3.665771484375E-06
0.845947265625	-3.7615966796875E-06
0.83587646484375	-3.79608154296875E-06
0.8258056640625	-3.83087158203125E-06
0.81573486328125	-3.89984130859375E-06
0.8056640625	-3.93310546875E-06
0.79559326171875	-4.046630859375E-06
0.7855224609375	-4.07623291015625E-06
0.77545166015625	-4.129638671875E-06
0.765380859375	-4.13299560546875E-06
0.75531005859375	-4.149169921875E-06
0.7452392578125	-4.19342041015625E-06
0.73516845703125	-4.2071533203125E-06
0.72509765625	-4.15740966796875E-06
0.71502685546875	-4.10736083984375E-06
0.7049560546875	-4.11712646484375E-06
0.69488525390625	-4.024658203125E-06
0.684814453125	-3.9581298828125E-06
0.67474365234375	-3.8946533203125E-06
0.6646728515625	-3.770751953125E-06
0.65460205078125	-3.6944580078125E-06
0.64453125	-3.507080078125E-06
0.63446044921875	-3.4002685546875E-06
0.6243896484375	-3.255615234375E-06
0.61431884765625	-3.099365234375E-06
0.604248046875	-3.02032470703125E-06
0.59417724609375	-2.890625E-06
0.5841064453125	-2.81768798828125E-06
0.57403564453125	-2.7130126953125E-06
0.56396484375	-2.606201171875E-06
0.55389404296875	-2.57904052734375E-06
0.5438232421875	-2.50885009765625E-06
0.53375244140625	-2.442626953125E-06
0.523681640625	-2.418212890625E-06
0.51361083984375	-2.30377197265625E-06
0.5035400390625	-2.20306396484375E-06
0.49346923828125	-2.0819091796875E-06
0.4833984375	-1.9366455078125E-06
0.47332763671875	-1.79351806640625E-06
0.4632568359375	-1.65313720703125E-06
0.45318603515625	-1.5191650390625E-06
0.443115234375	-1.3970947265625E-06
0.43304443359375	-1.29180908203125E-06
0.4229736328125	-1.19964599609375E-06
0.41290283203125	-1.123046875E-06
0.40283203125	-1.06201171875E-06
0.39276123046875	-1.00921630859375E-06
0.3826904296875	-9.68017578125E-07
0.37261962890625	-9.24072265625E-07
0.362548828125	-8.8623046875E-07
0.35247802734375	-8.5601806640625E-07
0.3424072265625	-8.209228515625E-07
0.33233642578125	-7.8948974609375E-07
0.322265625	-7.5775146484375E-07
0.31219482421875	-7.2906494140625E-07
0.3021240234375	-6.988525390625E-07
0.29205322265625	-6.67724609375E-07
0.281982421875	-6.4239501953125E-07
0.27191162109375	-6.2042236328125E-07
0.2618408203125	-6.0089111328125E-07
0.25177001953125	-5.8258056640625E-07
0.24169921875	-5.6732177734375E-07
0.23162841796875	-5.5450439453125E-07
0.2215576171875	-5.474853515625E-07
0.21148681640625	-5.401611328125E-07
0.201416015625	-5.3619384765625E-07
0.19134521484375	-5.3253173828125E-07
0.1812744140625	-5.3009033203125E-07
0.17120361328125	-5.3070068359375E-07
0.1611328125	-5.33447265625E-07
0.15106201171875	-5.3680419921875E-07
0.1409912109375	-5.4351806640625E-07
0.13092041015625	-5.4779052734375E-07
0.120849609375	-5.5511474609375E-07
0.11077880859375	-5.6549072265625E-07
0.1007080078125	-5.767822265625E-07
0.09063720703125	-5.8837890625E-07
0.08056640625	-6.005859375E-07
0.07049560546875	-6.158447265625E-07
0.0604248046875	-6.3079833984375E-07
0.05035400390625	-6.4788818359375E-07
0.040283203125	-6.6680908203125E-07
0.03021240234375	-6.878662109375E-07
0.0201416015625	-7.0953369140625E-07
0.01007080078125	-7.3333740234375E-07
0	-7.5775146484375E-07
-0.01007080078125	-7.855224609375E-07
-0.0201416015625	-8.148193359375E-07
-0.03021240234375	-8.441162109375E-07
-0.040283203125	-8.7646484375E-07
-0.05035400390625	-9.09423828125E-07
-0.0604248046875	-9.4512939453125E-07
-0.07049560546875	-9.8297119140625E-07
-0.08056640625	-1.0235595703125E-06
-0.09063720703125	-1.0675048828125E-06
-0.1007080078125	-1.1138916015625E-06
-0.11077880859375	-1.16546630859375E-06
-0.120849609375	-1.22161865234375E-06
-0.13092041015625	-1.28326416015625E-06
-0.1409912109375	-1.34979248046875E-06
-0.15106201171875	-1.41998291015625E-06
-0.1611328125	-1.49566650390625E-06
-0.17120361328125	-1.57501220703125E-06
-0.1812744140625	-1.6558837890625E-06
-0.19134521484375	-1.7376708984375E-06
-0.201416015625	-1.8170166015625E-06
-0.21148681640625	-1.8963623046875E-06
-0.2215576171875	-1.97052001953125E-06
-0.23162841796875	-2.04071044921875E-06
-0.24169921875	-2.103271484375E-06
-0.25177001953125	-2.16033935546875E-06
-0.2618408203125	-2.2113037109375E-06
-0.27191162109375	-2.2564697265625E-06
-0.281982421875	-2.2955322265625E-06
-0.29205322265625	-2.33123779296875E-06
-0.3021240234375	-2.3590087890625E-06
-0.29205322265625	-2.044677734375E-06
-0.281982421875	-1.7913818359375E-06
-0.27191162109375	-1.580810546875E-06
-0.2618408203125	-1.39801025390625E-06
-0.25177001953125	-1.240234375E-06
-0.24169921875	-1.10107421875E-06
-0.23162841796875	-9.7747802734375E-07
-0.2215576171875	-8.673095703125E-07
-0.21148681640625	-7.6751708984375E-07
-0.201416015625	-6.7657470703125E-07
-0.19134521484375	-5.9356689453125E-07
-0.1812744140625	-5.1727294921875E-07
-0.17120361328125	-4.461669921875E-07
-0.1611328125	-3.8482666015625E-07
-0.15106201171875	-3.26324462890625E-07
-0.1409912109375	-2.7215576171875E-07
-0.13092041015625	-2.213134765625E-07
-0.120849609375	-1.7138671875E-07
-0.11077880859375	-1.27105712890625E-07
-0.1007080078125	-8.5113525390625E-08
-0.09063720703125	-4.5562744140625E-08
-0.08056640625	-7.9010009765625E-09
-0.07049560546875	2.667236328125E-08
-0.0604248046875	5.950927734375E-08
-0.05035400390625	9.124755859375E-08
-0.040283203125	1.20452880859375E-07
-0.03021240234375	1.4862060546875E-07
-0.0201416015625	1.74713134765625E-07
-0.01007080078125	2.0001220703125E-07
0	2.23907470703125E-07
0.01007080078125	2.4658203125E-07
0.0201416015625	2.67547607421875E-07
0.03021240234375	2.8814697265625E-07
0.040283203125	3.07830810546875E-07
0.05035400390625	3.25592041015625E-07
0.0604248046875	3.43780517578125E-07
0.07049560546875	3.62762451171875E-07
0.08056640625	3.80035400390625E-07
0.09063720703125	3.97430419921875E-07
0.1007080078125	4.1534423828125E-07
0.11077880859375	4.354248046875E-07
0.120849609375	4.5458984375E-07
0.13092041015625	4.76348876953125E-07
0.1409912109375	4.98077392578125E-07
0.15106201171875	5.22491455078125E-07
0.1611328125	5.47698974609375E-07
0.17120361328125	5.7086181640625E-07
0.1812744140625	5.95458984375E-07
0.19134521484375	6.1865234375E-07
0.201416015625	6.3873291015625E-07
0.21148681640625	6.536865234375E-07
0.2215576171875	6.536865234375E-07
0.23162841796875	6.3812255859375E-07
0.24169921875	6.097412109375E-07
0.25177001953125	5.7830810546875E-07
0.2618408203125	5.5694580078125E-07
0.27191162109375	5.499267578125E-07
0.281982421875	5.5450439453125E-07
0.29205322265625	5.682373046875E-07
0.3021240234375	5.89599609375E-07
0.31219482421875	6.21337890625E-07
0.322265625	6.6070556640625E-07
0.33233642578125	7.0953369140625E-07
0.3424072265625	7.7117919921875E-07
0.35247802734375	8.4991455078125E-07
0.362548828125	9.4757080078125E-07
0.37261962890625	1.06414794921875E-06
0.3826904296875	1.18316650390625E-06
0.39276123046875	1.25701904296875E-06
0.40283203125	1.23046875E-06
0.41290283203125	1.0870361328125E-06
0.4229736328125	9.3231201171875E-07
0.43304443359375	8.4075927734375E-07
0.443115234375	8.02001953125E-07
0.45318603515625	8.0230712890625E-07
0.4632568359375	8.26416015625E-07
0.47332763671875	8.80126953125E-07
0.4833984375	9.6343994140625E-07
0.49346923828125	1.07818603515625E-06
0.5035400390625	1.22528076171875E-06
0.51361083984375	1.40167236328125E-06
0.523681640625	1.59820556640625E-06
0.53375244140625	1.802978515625E-06
0.5438232421875	1.99462890625E-06
0.55389404296875	2.21588134765625E-06
0.56396484375	2.44110107421875E-06
0.57403564453125	2.60650634765625E-06
0.5841064453125	2.76763916015625E-06
0.59417724609375	2.89825439453125E-06
0.604248046875	2.99652099609375E-06
0.61431884765625	3.01971435546875E-06
0.6243896484375	3.04168701171875E-06
0.63446044921875	3.08197021484375E-06
0.64453125	3.13385009765625E-06
0.65460205078125	3.2049560546875E-06
0.6646728515625	3.271484375E-06
0.67474365234375	3.30841064453125E-06
0.684814453125	3.38897705078125E-06
0.69488525390625	3.544921875E-06
0.7049560546875	3.67034912109375E-06
0.71502685546875	3.79547119140625E-06
0.72509765625	3.9556884765625E-06
0.73516845703125	4.1217041015625E-06
0.7452392578125	4.30267333984375E-06
0.75531005859375	4.5159912109375E-06
0.765380859375	4.6478271484375E-06
0.77545166015625	4.8040771484375E-06
0.7855224609375	4.97283935546875E-06
0.79559326171875	5.16571044921875E-06
0.8056640625	5.3472900390625E-06
0.81573486328125	5.5316162109375E-06
0.8258056640625	5.71624755859375E-06
0.83587646484375	5.859375E-06
0.845947265625	6.060791015625E-06
0.85601806640625	6.2042236328125E-06
0.8660888671875	6.3995361328125E-06
0.87615966796875	6.5093994140625E-06
0.88623046875	6.640625E-06
0.89630126953125	6.8328857421875E-06
0.9063720703125	7.080078125E-06
0.91644287109375	7.3028564453125E-06
0.926513671875	7.4981689453125E-06
0.93658447265625	7.7728271484375E-06
0.9466552734375	7.9437255859375E-06
0.95672607421875	8.172607421875E-06
0.966796875	8.30078125E-06
0.97686767578125	8.4381103515625E-06
0.9869384765625	8.6151123046875E-06
0.99700927734375	8.624267578125E-06
1.007080078125	8.770751953125E-06
1.01715087890625	8.929443359375E-06
1.0272216796875	9.136962890625E-06
1.03729248046875	9.3353271484375E-06
1.04736328125	9.6038818359375E-06
1.05743408203125	1.0009765625E-05
1.0675048828125	1.04156494140625E-05
1.07757568359375	1.0784912109375E-05
1.087646484375	1.11358642578125E-05
1.09771728515625	1.1480712890625E-05
1.1077880859375	1.1846923828125E-05
1.11785888671875	1.20880126953125E-05
1.1279296875	1.23138427734375E-05
1.13800048828125	1.253662109375E-05
1.1480712890625	1.26983642578125E-05
1.15814208984375	1.27685546875E-05
1.168212890625	1.2847900390625E-05
1.17828369140625	1.30218505859375E-05
1.1883544921875	1.34063720703125E-05
1.19842529296875	1.39617919921875E-05
1.20849609375	1.47186279296875E-05
1.19842529296875	1.0662841796875E-05
1.1883544921875	8.2977294921875E-06
1.17828369140625	6.62841796875E-06
1.168212890625	5.38330078125E-06
1.15814208984375	4.45556640625E-06
1.1480712890625	3.74053955078125E-06
1.13800048828125	3.03619384765625E-06
1.1279296875	2.46734619140625E-06
1.11785888671875	2.02484130859375E-06
1.1077880859375	1.63787841796875E-06
1.09771728515625	1.2615966796875E-06
1.087646484375	9.3536376953125E-07
1.07757568359375	5.7220458984375E-07
1.0675048828125	2.7252197265625E-07
1.05743408203125	3.60107421875E-08
1.04736328125	-3.28369140625E-07
1.03729248046875	-5.902099609375E-07
1.0272216796875	-8.48388671875E-07
1.01715087890625	-1.07330322265625E-06
1.007080078125	-1.4044189453125E-06
0.99700927734375	-1.65802001953125E-06
0.9869384765625	-1.895751953125E-06
0.97686767578125	-2.225341796875E-06
0.966796875	-2.42919921875E-06
0.95672607421875	-2.7191162109375E-06
0.9466552734375	-2.89337158203125E-06
0.93658447265625	-3.09326171875E-06
0.926513671875	-3.3441162109375E-06
0.91644287109375	-3.402099609375E-06
0.9063720703125	-3.5479736328125E-06
0.89630126953125	-3.626708984375E-06
0.88623046875	-3.6566162109375E-06
0.87615966796875	-3.72039794921875E-06
0.8660888671875	-3.751220703125E-06
0.85601806640625	-3.779296875E-06
0.845947265625	-3.86505126953125E-06
0.83587646484375	-3.91326904296875E-06
0.8258056640625	-3.9239501953125E-06
0.81573486328125	-3.992919921875E-06
0.8056640625	-4.052734375E-06
0.79559326171875	-4.07684326171875E-06
0.7855224609375	-4.16717529296875E-06
0.77545166015625	-4.21783447265625E-06
0.765380859375	-4.22821044921875E-06
0.75531005859375	-4.23187255859375E-06
0.7452392578125	-4.2578125E-06
0.73516845703125	-4.25628662109375E-06
0.72509765625	-4.241943359375E-06
0.71502685546875	-4.21295166015625E-06
0.7049560546875	-4.17388916015625E-06
0.69488525390625	-4.117431640625E-06
0.684814453125	-4.06097412109375E-06
0.67474365234375	-3.98834228515625E-06
0.6646728515625	-3.8916015625E-06
0.65460205078125	-3.8189697265625E-06
0.64453125	-3.7188720703125E-06
0.63446044921875	-3.57696533203125E-06
0.6243896484375	-3.507080078125E-06
0.61431884765625	-3.3612060546875E-06
0.604248046875	-3.2147216796875E-06
0.59417724609375	-3.173828125E-06
0.5841064453125	-3.06060791015625E-06
0.57403564453125	-2.98095703125E-06
0.56396484375	-2.91656494140625E-06
0.55389404296875	-2.87872314453125E-06
0.5438232421875	-2.8363037109375E-06
0.53375244140625	-2.799072265625E-06
0.523681640625	-2.73590087890625E-06
0.51361083984375	-2.6641845703125E-06
0.5035400390625	-2.55279541015625E-06
0.49346923828125	-2.4237060546875E-06
0.4833984375	-2.2930908203125E-06
0.47332763671875	-2.1307373046875E-06
0.4632568359375	-1.97418212890625E-06
0.45318603515625	-1.8145751953125E-06
0.443115234375	-1.67388916015625E-06
0.43304443359375	-1.556396484375E-06
0.4229736328125	-1.44775390625E-06
0.41290283203125	-1.3507080078125E-06
0.40283203125	-1.27044677734375E-06
0.39276123046875	-1.20147705078125E-06
0.3826904296875	-1.14349365234375E-06
0.37261962890625	-1.0919189453125E-06
0.362548828125	-1.03973388671875E-06
0.35247802734375	-9.942626953125E-07
0.3424072265625	-9.490966796875E-07
0.33233642578125	-9.1064453125E-07
0.322265625	-8.697509765625E-07
0.31219482421875	-8.3648681640625E-07
0.3021240234375	-8.0596923828125E-07
0.29205322265625	-7.7545166015625E-07
0.281982421875	-7.53173828125E-07
0.27191162109375	-7.293701171875E-07
0.2618408203125	-7.1319580078125E-07
0.25177001953125	-6.9854736328125E-07
0.24169921875	-6.878662109375E-07
0.23162841796875	-6.8115234375E-07
0.2215576171875	-6.744384765625E-07
0.21148681640625	-6.7169189453125E-07
0.201416015625	-6.707763671875E-07
0.19134521484375	-6.7291259765625E-07
0.1812744140625	-6.8084716796875E-07
0.17120361328125	-6.8389892578125E-07
0.1611328125	-6.9244384765625E-07
0.15106201171875	-7.0526123046875E-07
0.1409912109375	-7.1990966796875E-07
0.13092041015625	-7.3760986328125E-07
0.120849609375	-7.568359375E-07
0.11077880859375	-7.7667236328125E-07
0.1007080078125	-8.0230712890625E-07
0.09063720703125	-8.2794189453125E-07
0.08056640625	-8.5174560546875E-07
0.07049560546875	-8.8165283203125E-07
0.0604248046875	-9.1217041015625E-07
0.05035400390625	-9.4207763671875E-07
0.040283203125	-9.75341796875E-07
0.03021240234375	-1.01043701171875E-06
0.0201416015625	-1.04522705078125E-06
0.01007080078125	-1.08123779296875E-06
0	-1.1175537109375E-06
-0.01007080078125	-1.156005859375E-06
-0.0201416015625	-1.19415283203125E-06
-0.03021240234375	-1.23199462890625E-06
-0.040283203125	-1.26953125E-06
-0.05035400390625	-1.30889892578125E-06
-0.0604248046875	-1.346435546875E-06
-0.07049560546875	-1.38427734375E-06
-0.08056640625	-1.4202880859375E-06
-0.09063720703125	-1.45751953125E-06
-0.1007080078125	-1.4935302734375E-06
-0.11077880859375	-1.5289306640625E-06
-0.120849609375	-1.56341552734375E-06
-0.13092041015625	-1.5960693359375E-06
-0.1409912109375	-1.62933349609375E-06
-0.15106201171875	-1.66015625E-06
-0.1611328125	-1.6900634765625E-06
-0.17120361328125	-1.71905517578125E-06
-0.1812744140625	-1.746826171875E-06
-0.19134521484375	-1.77215576171875E-06
-0.201416015625	-1.796875E-06
-0.21148681640625	-1.820068359375E-06
-0.2215576171875	-1.84295654296875E-06
-0.23162841796875	-1.86614990234375E-06
-0.24169921875	-1.8878173828125E-06
-0.25177001953125	-1.9097900390625E-06
-0.2618408203125	-1.93145751953125E-06
-0.27191162109375	-1.9525146484375E-06
-0.281982421875	-1.9732666015625E-06
-0.29205322265625	-1.99462890625E-06
-0.3021240234375	-2.01568603515625E-06
-0.29205322265625	-1.74041748046875E-06
-0.281982421875	-1.53076171875E-06
-0.27191162109375	-1.35986328125E-06
-0.2618408203125	-1.21368408203125E-06
-0.25177001953125	-1.08642578125E-06
-0.24169921875	-9.7320556640625E-07
-0.23162841796875	-8.72802734375E-07
-0.2215576171875	-7.8155517578125E-07
-0.21148681640625	-6.982421875E-07
-0.201416015625	-6.2164306640625E-07
-0.19134521484375	-5.511474609375E-07
-0.1812744140625	-4.864501953125E-07
-0.17120361328125	-4.2388916015625E-07
-0.1611328125	-3.6993408203125E-07
-0.15106201171875	-3.16986083984375E-07
-0.1409912109375	-2.6763916015625E-07
-0.13092041015625	-2.1954345703125E-07
-0.120849609375	-1.7474365234375E-07
-0.11077880859375	-1.32568359375E-07
-0.1007080078125	-9.283447265625E-08
-0.09063720703125	-5.4656982421875E-08
-0.08056640625	-1.749267578125E-08
-0.07049560546875	1.8231201171875E-08
-0.0604248046875	5.2886962890625E-08
-0.05035400390625	8.5906982421875E-08
-0.040283203125	1.18743896484375E-07
-0.03021240234375	1.5008544921875E-07
-0.0201416015625	1.80450439453125E-07
-0.01007080078125	2.10845947265625E-07
0	2.41058349609375E-07
0.01007080078125	2.7032470703125E-07
0.0201416015625	2.98858642578125E-07
0.03021240234375	3.28033447265625E-07
0.040283203125	3.57818603515625E-07
0.05035400390625	3.87115478515625E-07
0.0604248046875	4.1705322265625E-07
0.07049560546875	4.4952392578125E-07
0.08056640625	4.830322265625E-07
0.09063720703125	5.1824951171875E-07
0.1007080078125	5.56549072265625E-07
0.11077880859375	6.01043701171875E-07
0.120849609375	6.488037109375E-07
0.13092041015625	7.025146484375E-07
0.1409912109375	7.598876953125E-07
0.15106201171875	8.251953125E-07
0.1611328125	8.966064453125E-07
0.17120361328125	9.722900390625E-07
0.1812744140625	1.04827880859375E-06
0.19134521484375	1.1175537109375E-06
0.201416015625	1.17340087890625E-06
0.21148681640625	1.20819091796875E-06
0.2215576171875	1.2255859375E-06
0.23162841796875	1.2286376953125E-06
0.24169921875	1.16302490234375E-06
0.25177001953125	1.02508544921875E-06
0.2618408203125	8.746337890625E-07
0.27191162109375	7.3974609375E-07
0.281982421875	6.84814453125E-07
0.29205322265625	6.8389892578125E-07
0.3021240234375	7.0068359375E-07
0.31219482421875	7.293701171875E-07
0.322265625	7.659912109375E-07
0.33233642578125	8.1756591796875E-07
0.3424072265625	8.85009765625E-07
0.35247802734375	9.710693359375E-07
0.362548828125	1.0821533203125E-06
0.37261962890625	1.2200927734375E-06
0.3826904296875	1.37603759765625E-06
0.39276123046875	1.51123046875E-06
0.40283203125	1.52618408203125E-06
0.41290283203125	1.3421630859375E-06
0.4229736328125	1.09832763671875E-06
0.43304443359375	9.4818115234375E-07
0.443115234375	8.8287353515625E-07
0.45318603515625	8.7066650390625E-07
0.4632568359375	8.9630126953125E-07
0.47332763671875	9.5733642578125E-07
0.4833984375	1.043701171875E-06
0.49346923828125	1.18804931640625E-06
0.5035400390625	1.35009765625E-06
0.51361083984375	1.5460205078125E-06
0.523681640625	1.7205810546875E-06
0.53375244140625	1.927490234375E-06
0.5438232421875	2.13653564453125E-06
0.55389404296875	2.3046875E-06
0.56396484375	2.47344970703125E-06
0.57403564453125	2.6031494140625E-06
0.5841064453125	2.7081298828125E-06
0.59417724609375	2.78717041015625E-06
0.604248046875	2.7777099609375E-06
0.61431884765625	2.83294677734375E-06
0.6243896484375	2.83721923828125E-06
0.63446044921875	2.880859375E-06
0.64453125	2.940673828125E-06
0.65460205078125	3.013916015625E-06
0.6646728515625	3.057861328125E-06
0.67474365234375	3.12103271484375E-06
0.684814453125	3.21807861328125E-06
0.69488525390625	3.32366943359375E-06
0.7049560546875	3.42498779296875E-06
0.71502685546875	3.52020263671875E-06
0.72509765625	3.6541748046875E-06
0.73516845703125	3.80859375E-06
0.7452392578125	3.98040771484375E-06
0.75531005859375	4.110107421875E-06
0.765380859375	4.2767333984375E-06
0.77545166015625	4.43634033203125E-06
0.7855224609375	4.59503173828125E-06
0.79559326171875	4.747314453125E-06
0.8056640625	4.89105224609375E-06
0.81573486328125	5.07843017578125E-06
0.8258056640625	5.27740478515625E-06
0.83587646484375	5.49530029296875E-06
0.845947265625	5.609130859375E-06
0.85601806640625	5.82794189453125E-06
0.8660888671875	6.01593017578125E-06
0.87615966796875	6.1920166015625E-06
0.88623046875	6.341552734375E-06
0.89630126953125	6.5673828125E-06
0.9063720703125	6.7352294921875E-06
0.91644287109375	7.037353515625E-06
0.926513671875	7.244873046875E-06
0.93658447265625	7.50732421875E-06
0.9466552734375	7.7545166015625E-06
0.95672607421875	7.97119140625E-06
0.966796875	8.172607421875E-06
0.97686767578125	8.2763671875E-06
0.9869384765625	8.4381103515625E-06
0.99700927734375	8.58154296875E-06
1.007080078125	8.7005615234375E-06
1.01715087890625	8.8134765625E-06
1.0272216796875	8.9324951171875E-06
1.03729248046875	9.136962890625E-06
1.04736328125	9.356689453125E-06
1.05743408203125	9.625244140625E-06
1.0675048828125	9.967041015625E-06
1.07757568359375	1.03515625E-05
1.087646484375	1.07025146484375E-05
1.09771728515625	1.1041259765625E-05
1.1077880859375	1.1328125E-05
1.11785888671875	1.16119384765625E-05
1.1279296875	1.18438720703125E-05
1.13800048828125	1.20147705078125E-05
1.1480712890625	1.21917724609375E-05
1.15814208984375	1.2310791015625E-05
1.168212890625	1.24542236328125E-05
1.17828369140625	1.27838134765625E-05
1.1883544921875	1.32659912109375E-05
1.19842529296875	1.39892578125E-05
1.20849609375	1.497802734375E-05
1.19842529296875	1.07147216796875E-05
1.1883544921875	8.3251953125E-06
1.17828369140625	6.6375732421875E-06
1.168212890625	5.3558349609375E-06
1.15814208984375	4.39453125E-06
1.1480712890625	3.575439453125E-06
1.13800048828125	2.9754638671875E-06
1.1279296875	2.40814208984375E-06
1.11785888671875	1.94366455078125E-06
1.1077880859375	1.55303955078125E-06
1.09771728515625	1.11114501953125E-06
1.087646484375	7.7789306640625E-07
1.07757568359375	4.644775390625E-07
1.0675048828125	1.7425537109375E-07
1.05743408203125	-1.30615234375E-07
1.04736328125	-4.1229248046875E-07
1.03729248046875	-6.3690185546875E-07
1.0272216796875	-9.320068359375E-07
1.01715087890625	-1.207275390625E-06
1.007080078125	-1.4208984375E-06
0.99700927734375	-1.7242431640625E-06
0.9869384765625	-1.94671630859375E-06
0.97686767578125	-2.21282958984375E-06
0.966796875	-2.5018310546875E-06
0.95672607421875	-2.68157958984375E-06
0.9466552734375	-2.9339599609375E-06
0.93658447265625	-3.09783935546875E-06
0.926513671875	-3.30047607421875E-06
0.91644287109375	-3.382568359375E-06
0.9063720703125	-3.51806640625E-06
0.89630126953125	-3.61480712890625E-06
0.88623046875	-3.65264892578125E-06
0.87615966796875	-3.7322998046875E-06
0.8660888671875	-3.78875732421875E-06
0.85601806640625	-3.83514404296875E-06
0.845947265625	-3.85528564453125E-06
0.83587646484375	-3.8885498046875E-06
0.8258056640625	-3.912353515625E-06
0.81573486328125	-4.02862548828125E-06
0.8056640625	-4.03717041015625E-06
0.79559326171875	-4.1351318359375E-06
0.7855224609375	-4.14093017578125E-06
0.77545166015625	-4.195556640625E-06
0.765380859375	-4.21356201171875E-06
0.75531005859375	-4.2340087890625E-06
0.7452392578125	-4.29718017578125E-06
0.73516845703125	-4.261474609375E-06
0.72509765625	-4.27001953125E-06
0.71502685546875	-4.24896240234375E-06
0.7049560546875	-4.23065185546875E-06
0.69488525390625	-4.17694091796875E-06
0.684814453125	-4.15130615234375E-06
0.67474365234375	-4.044189453125E-06
0.6646728515625	-3.99658203125E-06
0.65460205078125	-3.8946533203125E-06
0.64453125	-3.77410888671875E-06
0.63446044921875	-3.68560791015625E-06
0.6243896484375	-3.58856201171875E-06
0.61431884765625	-3.45245361328125E-06
0.604248046875	-3.34381103515625E-06
0.59417724609375	-3.24615478515625E-06
0.5841064453125	-3.162841796875E-06
0.57403564453125	-3.094482421875E-06
0.56396484375	-3.0181884765625E-06
0.55389404296875	-2.99072265625E-06
0.5438232421875	-2.95135498046875E-06
0.53375244140625	-2.87567138671875E-06
0.523681640625	-2.82684326171875E-06
0.51361083984375	-2.786865234375E-06
0.5035400390625	-2.66387939453125E-06
0.49346923828125	-2.55859375E-06
0.4833984375	-2.398681640625E-06
0.47332763671875	-2.25830078125E-06
0.4632568359375	-2.09991455078125E-06
0.45318603515625	-1.937255859375E-06
0.443115234375	-1.7950439453125E-06
0.43304443359375	-1.661376953125E-06
0.4229736328125	-1.54571533203125E-06
0.41290283203125	-1.44622802734375E-06
0.40283203125	-1.356201171875E-06
0.39276123046875	-1.2823486328125E-06
0.3826904296875	-1.22039794921875E-06
0.37261962890625	-1.1639404296875E-06
0.362548828125	-1.10870361328125E-06
0.35247802734375	-1.05865478515625E-06
0.3424072265625	-1.01287841796875E-06
0.33233642578125	-9.6954345703125E-07
0.322265625	-9.307861328125E-07
0.31219482421875	-8.9385986328125E-07
0.3021240234375	-8.6273193359375E-07
0.29205322265625	-8.3282470703125E-07
0.281982421875	-8.087158203125E-07
0.27191162109375	-7.8857421875E-07
0.2618408203125	-7.7301025390625E-07
0.25177001953125	-7.60498046875E-07
0.24169921875	-7.5103759765625E-07
0.23162841796875	-7.4432373046875E-07
0.2215576171875	-7.3974609375E-07
0.21148681640625	-7.427978515625E-07
0.201416015625	-7.4066162109375E-07
0.19134521484375	-7.4432373046875E-07
0.1812744140625	-7.5042724609375E-07
0.17120361328125	-7.6080322265625E-07
0.1611328125	-7.7178955078125E-07
0.15106201171875	-7.8887939453125E-07
0.1409912109375	-8.0841064453125E-07
0.13092041015625	-8.355712890625E-07
0.120849609375	-8.685302734375E-07
0.11077880859375	-9.0667724609375E-07
0.1007080078125	-9.4573974609375E-07
0.09063720703125	-9.8785400390625E-07
0.08056640625	-1.02874755859375E-06
0.07049560546875	-1.068115234375E-06
0.0604248046875	-1.10687255859375E-06
0.05035400390625	-1.14410400390625E-06
0.040283203125	-1.18133544921875E-06
0.03021240234375	-1.217041015625E-06
0.0201416015625	-1.25335693359375E-06
0.01007080078125	-1.28936767578125E-06
0	-1.32476806640625E-06
-0.01007080078125	-1.36016845703125E-06
-0.0201416015625	-1.39404296875E-06
-0.03021240234375	-1.429443359375E-06
-0.040283203125	-1.46331787109375E-06
-0.05035400390625	-1.495361328125E-06
-0.0604248046875	-1.52587890625E-06
-0.07049560546875	-1.5582275390625E-06
-0.08056640625	-1.5887451171875E-06
-0.09063720703125	-1.61865234375E-06
-0.1007080078125	-1.64794921875E-06
-0.11077880859375	-1.67633056640625E-06
-0.120849609375	-1.70440673828125E-06
-0.13092041015625	-1.73126220703125E-06
-0.1409912109375	-1.75628662109375E-06
-0.15106201171875	-1.78192138671875E-06
-0.1611328125	-1.8060302734375E-06
-0.17120361328125	-1.829833984375E-06
-0.1812744140625	-1.85211181640625E-06
-0.19134521484375	-1.87530517578125E-06
-0.201416015625	-1.89788818359375E-06
-0.21148681640625	-1.91925048828125E-06
-0.2215576171875	-1.93939208984375E-06
-0.23162841796875	-1.96075439453125E-06
-0.24169921875	-1.98211669921875E-06
-0.25177001953125	-2.00225830078125E-06
-0.2618408203125	-2.02056884765625E-06
-0.27191162109375	-2.041015625E-06
-0.281982421875	-2.05902099609375E-06
-0.29205322265625	-2.0782470703125E-06
-0.3021240234375	-2.09564208984375E-06
-0.29205322265625	-1.7926025390625E-06
-0.281982421875	-1.56402587890625E-06
-0.27191162109375	-1.3787841796875E-06
-0.2618408203125	-1.2200927734375E-06
-0.25177001953125	-1.083984375E-06
-0.24169921875	-9.6343994140625E-07
-0.23162841796875	-8.551025390625E-07
-0.2215576171875	-7.574462890625E-07
-0.21148681640625	-6.683349609375E-07
-0.201416015625	-5.8624267578125E-07
-0.19134521484375	-5.108642578125E-07
-0.1812744140625	-4.3853759765625E-07
-0.17120361328125	-3.7506103515625E-07
-0.1611328125	-3.15093994140625E-07
-0.15106201171875	-2.5701904296875E-07
-0.1409912109375	-2.0233154296875E-07
-0.13092041015625	-1.495361328125E-07
-0.120849609375	-1.0174560546875E-07
-0.11077880859375	-5.5938720703125E-08
-0.1007080078125	-1.1480712890625E-08
-0.09063720703125	3.057861328125E-08
-0.08056640625	7.037353515625E-08
-0.07049560546875	1.09100341796875E-07
-0.0604248046875	1.4697265625E-07
-0.05035400390625	1.82342529296875E-07
-0.040283203125	2.174072265625E-07
-0.03021240234375	2.50732421875E-07
-0.0201416015625	2.8369140625E-07
-0.01007080078125	3.14849853515625E-07
0	3.45611572265625E-07
