Potential applied (V)	WE(1).Current (A)
0.01007080078125	-1.4447021484375E-07
0.0201416015625	-7.1685791015625E-08
0.03021240234375	-1.08642578125E-08
0.040283203125	4.071044921875E-08
0.05035400390625	8.89892578125E-08
0.0604248046875	1.32476806640625E-07
0.07049560546875	1.74652099609375E-07
0.08056640625	2.174072265625E-07
0.09063720703125	2.6385498046875E-07
0.1007080078125	3.14483642578125E-07
0.11077880859375	3.68011474609375E-07
0.120849609375	4.25018310546875E-07
0.13092041015625	4.8193359375E-07
0.1409912109375	5.39703369140625E-07
0.15106201171875	6.009521484375E-07
0.1611328125	6.732177734375E-07
0.17120361328125	7.5439453125E-07
0.1812744140625	8.4991455078125E-07
0.19134521484375	9.8052978515625E-07
0.201416015625	1.209716796875E-06
0.21148681640625	1.3824462890625E-06
0.2215576171875	1.38671875E-06
0.23162841796875	1.30340576171875E-06
0.24169921875	1.1590576171875E-06
0.25177001953125	9.5672607421875E-07
0.2618408203125	7.6019287109375E-07
0.27191162109375	6.6253662109375E-07
0.281982421875	6.23779296875E-07
0.29205322265625	6.207275390625E-07
0.3021240234375	6.3507080078125E-07
0.31219482421875	6.6162109375E-07
0.322265625	6.9854736328125E-07
0.33233642578125	7.53173828125E-07
0.3424072265625	8.154296875E-07
0.35247802734375	8.94775390625E-07
0.362548828125	9.97314453125E-07
0.37261962890625	1.119384765625E-06
0.3826904296875	1.251220703125E-06
0.39276123046875	1.34918212890625E-06
0.40283203125	1.34124755859375E-06
0.39276123046875	5.8380126953125E-07
0.3826904296875	2.55126953125E-07
0.37261962890625	8.0352783203125E-08
0.362548828125	-2.0751953125E-08
0.35247802734375	-8.7066650390625E-08
0.3424072265625	-1.2896728515625E-07
0.33233642578125	-1.5478515625E-07
0.322265625	-1.739501953125E-07
0.31219482421875	-1.89208984375E-07
0.3021240234375	-2.0013427734375E-07
0.29205322265625	-2.1038818359375E-07
0.281982421875	-2.1600341796875E-07
0.27191162109375	-2.24090576171875E-07
0.2618408203125	-2.31903076171875E-07
0.25177001953125	-2.37030029296875E-07
0.24169921875	-2.4456787109375E-07
0.23162841796875	-2.5030517578125E-07
0.2215576171875	-2.58270263671875E-07
0.21148681640625	-2.65869140625E-07
0.201416015625	-2.734375E-07
0.19134521484375	-2.808837890625E-07
0.1812744140625	-2.880859375E-07
0.17120361328125	-2.965087890625E-07
0.1611328125	-3.0645751953125E-07
0.15106201171875	-3.15582275390625E-07
0.1409912109375	-3.23974609375E-07
0.13092041015625	-3.32061767578125E-07
0.120849609375	-3.426513671875E-07
0.11077880859375	-3.531494140625E-07
0.1007080078125	-3.638916015625E-07
0.09063720703125	-3.74847412109375E-07
0.08056640625	-3.873291015625E-07
0.07049560546875	-4.0008544921875E-07
0.0604248046875	-4.13116455078125E-07
0.05035400390625	-4.27520751953125E-07
0.040283203125	-4.43389892578125E-07
0.03021240234375	-4.60113525390625E-07
0.0201416015625	-4.7869873046875E-07
0.01007080078125	-4.99237060546875E-07
0	-5.242919921875E-07
-0.01007080078125	-5.54168701171875E-07
-0.0201416015625	-5.8807373046875E-07
-0.03021240234375	-6.23016357421875E-07
-0.040283203125	-6.5704345703125E-07
-0.05035400390625	-6.890869140625E-07
-0.0604248046875	-7.183837890625E-07
-0.07049560546875	-7.4493408203125E-07
-0.08056640625	-7.696533203125E-07
-0.09063720703125	-7.9620361328125E-07
-0.1007080078125	-8.245849609375E-07
-0.11077880859375	-8.5418701171875E-07
-0.120849609375	-8.82568359375E-07
-0.13092041015625	-9.112548828125E-07
-0.1409912109375	-9.4146728515625E-07
-0.15106201171875	-9.710693359375E-07
-0.1611328125	-1.0009765625E-06
-0.17120361328125	-1.0302734375E-06
-0.1812744140625	-1.06109619140625E-06
-0.19134521484375	-1.0931396484375E-06
-0.201416015625	-1.12457275390625E-06
-0.21148681640625	-1.15631103515625E-06
-0.2215576171875	-1.1883544921875E-06
-0.23162841796875	-1.221923828125E-06
-0.24169921875	-1.25579833984375E-06
-0.25177001953125	-1.2896728515625E-06
-0.2618408203125	-1.3238525390625E-06
-0.27191162109375	-1.35833740234375E-06
-0.281982421875	-1.39312744140625E-06
-0.29205322265625	-1.4276123046875E-06
-0.3021240234375	-1.46453857421875E-06
-0.31219482421875	-1.50054931640625E-06
-0.322265625	-1.53717041015625E-06
-0.33233642578125	-1.57318115234375E-06
-0.3424072265625	-1.610107421875E-06
-0.35247802734375	-1.64825439453125E-06
-0.362548828125	-1.6864013671875E-06
-0.37261962890625	-1.724853515625E-06
-0.3826904296875	-1.76055908203125E-06
-0.39276123046875	-1.7974853515625E-06
-0.40283203125	-1.834716796875E-06
-0.41290283203125	-1.87042236328125E-06
-0.4229736328125	-1.90338134765625E-06
-0.43304443359375	-1.93511962890625E-06
-0.443115234375	-1.9659423828125E-06
-0.45318603515625	-1.995849609375E-06
-0.4632568359375	-2.021484375E-06
-0.47332763671875	-2.04803466796875E-06
-0.4833984375	-2.0703125E-06
-0.49346923828125	-2.09136962890625E-06
-0.5035400390625	-2.1087646484375E-06
-0.51361083984375	-2.1209716796875E-06
-0.523681640625	-2.13165283203125E-06
-0.53375244140625	-2.13714599609375E-06
-0.5438232421875	-2.13958740234375E-06
-0.55389404296875	-2.135009765625E-06
-0.56396484375	-2.12554931640625E-06
-0.57403564453125	-2.11090087890625E-06
-0.5841064453125	-2.0916748046875E-06
-0.59417724609375	-2.06756591796875E-06
-0.604248046875	-2.03857421875E-06
-0.61431884765625	-2.008056640625E-06
-0.6243896484375	-1.9757080078125E-06
-0.63446044921875	-1.93878173828125E-06
-0.64453125	-1.89971923828125E-06
-0.65460205078125	-1.86126708984375E-06
-0.6646728515625	-1.8194580078125E-06
-0.67474365234375	-1.77734375E-06
-0.684814453125	-1.73492431640625E-06
-0.69488525390625	-1.69158935546875E-06
-0.7049560546875	-1.65191650390625E-06
-0.71502685546875	-1.61102294921875E-06
-0.72509765625	-1.56982421875E-06
-0.73516845703125	-1.52923583984375E-06
-0.7452392578125	-1.495361328125E-06
-0.75531005859375	-1.4599609375E-06
-0.765380859375	-1.4251708984375E-06
-0.77545166015625	-1.39434814453125E-06
-0.7855224609375	-1.3665771484375E-06
-0.79559326171875	-1.3427734375E-06
-0.8056640625	-1.3189697265625E-06
-0.81573486328125	-1.2969970703125E-06
-0.8258056640625	-1.27960205078125E-06
-0.83587646484375	-1.265869140625E-06
-0.845947265625	-1.2542724609375E-06
-0.85601806640625	-1.24176025390625E-06
-0.8660888671875	-1.23138427734375E-06
-0.87615966796875	-1.22711181640625E-06
-0.88623046875	-1.22711181640625E-06
-0.89630126953125	-1.22344970703125E-06
-0.9063720703125	-1.21612548828125E-06
-0.91644287109375	-1.21917724609375E-06
-0.926513671875	-1.2225341796875E-06
-0.93658447265625	-1.22802734375E-06
-0.9466552734375	-1.2249755859375E-06
-0.95672607421875	-1.226806640625E-06
-0.966796875	-1.2359619140625E-06
-0.97686767578125	-1.24176025390625E-06
-0.9869384765625	-1.24481201171875E-06
-0.99700927734375	-1.24237060546875E-06
-1.007080078125	-1.25732421875E-06
-1.01715087890625	-1.26861572265625E-06
-1.0272216796875	-1.27288818359375E-06
-1.03729248046875	-1.27532958984375E-06
-1.04736328125	-1.28326416015625E-06
-1.05743408203125	-1.30218505859375E-06
-1.0675048828125	-1.31072998046875E-06
-1.07757568359375	-1.31378173828125E-06
-1.087646484375	-1.32232666015625E-06
-1.09771728515625	-1.33758544921875E-06
-1.1077880859375	-1.35528564453125E-06
-1.11785888671875	-1.35894775390625E-06
-1.1279296875	-1.36962890625E-06
-1.13800048828125	-1.38397216796875E-06
-1.1480712890625	-1.40655517578125E-06
-1.15814208984375	-1.41937255859375E-06
-1.168212890625	-1.4306640625E-06
-1.17828369140625	-1.44775390625E-06
-1.1883544921875	-1.4703369140625E-06
-1.19842529296875	-1.49078369140625E-06
-1.20849609375	-1.50054931640625E-06
-1.21856689453125	-1.519775390625E-06
-1.2286376953125	-1.546630859375E-06
-1.23870849609375	-1.57012939453125E-06
-1.248779296875	-1.5936279296875E-06
-1.25885009765625	-1.61102294921875E-06
-1.2689208984375	-1.64947509765625E-06
-1.27899169921875	-1.6790771484375E-06
-1.2890625	-1.70806884765625E-06
-1.29913330078125	-1.7388916015625E-06
-1.3092041015625	-1.77947998046875E-06
-1.31927490234375	-1.83013916015625E-06
-1.329345703125	-1.87652587890625E-06
-1.33941650390625	-1.9244384765625E-06
-1.3494873046875	-1.9793701171875E-06
-1.35955810546875	-2.05413818359375E-06
-1.36962890625	-2.1209716796875E-06
-1.37969970703125	-2.19024658203125E-06
-1.3897705078125	-2.2698974609375E-06
-1.39984130859375	-2.36907958984375E-06
-1.409912109375	-2.48016357421875E-06
-1.41998291015625	-2.58392333984375E-06
-1.4300537109375	-2.6995849609375E-06
-1.44012451171875	-2.83905029296875E-06
-1.4501953125	-2.99713134765625E-06
-1.46026611328125	-3.160400390625E-06
-1.4703369140625	-3.3258056640625E-06
-1.48040771484375	-3.5284423828125E-06
-1.490478515625	-3.7481689453125E-06
-1.50054931640625	-3.99444580078125E-06
-1.5106201171875	-4.2510986328125E-06
-1.52069091796875	-4.54071044921875E-06
-1.53076171875	-4.884033203125E-06
-1.54083251953125	-5.26611328125E-06
-1.5509033203125	-5.68603515625E-06
-1.56097412109375	-6.17218017578125E-06
-1.571044921875	-6.7596435546875E-06
-1.58111572265625	-7.45849609375E-06
-1.5911865234375	-8.319091796875E-06
-1.60125732421875	-9.454345703125E-06
-1.611328125	-1.10595703125E-05
-1.62139892578125	-1.34521484375E-05
-1.6314697265625	-1.68548583984375E-05
-1.64154052734375	-2.14447021484375E-05
-1.651611328125	-2.68524169921875E-05
-1.66168212890625	-3.1134033203125E-05
-1.6717529296875	-3.23822021484375E-05
-1.68182373046875	-3.17901611328125E-05
-1.69189453125	-2.95196533203125E-05
-1.70196533203125	-2.5567626953125E-05
-1.7120361328125	-2.27874755859375E-05
-1.72210693359375	-2.10418701171875E-05
-1.732177734375	-1.99310302734375E-05
-1.74224853515625	-1.91650390625E-05
-1.7523193359375	-1.85546875E-05
-1.76239013671875	-1.79718017578125E-05
-1.7724609375	-1.75567626953125E-05
-1.78253173828125	-1.73736572265625E-05
-1.7926025390625	-1.7510986328125E-05
-1.80267333984375	-1.79779052734375E-05
-1.812744140625	-1.8963623046875E-05
-1.82281494140625	-2.064208984375E-05
-1.8328857421875	-2.38861083984375E-05
-1.84295654296875	-2.91656494140625E-05
-1.85302734375	-3.68743896484375E-05
-1.86309814453125	-4.68048095703125E-05
-1.8731689453125	-5.96954345703125E-05
-1.88323974609375	-7.55035400390625E-05
-1.893310546875	-9.0667724609375E-05
-1.90338134765625	-9.68017578125E-05
-1.9134521484375	-9.014892578125E-05
-1.92352294921875	-7.769775390625E-05
-1.93359375	-6.7291259765625E-05
-1.94366455078125	-5.9478759765625E-05
-1.9537353515625	-5.377197265625E-05
-1.96380615234375	-4.9102783203125E-05
-1.973876953125	-4.56573486328125E-05
-1.98394775390625	-4.30267333984375E-05
-1.9940185546875	-4.10125732421875E-05
-2.00408935546875	-3.856201171875E-05
-2.01416015625	-3.67706298828125E-05
-2.02423095703125	-3.49029541015625E-05
-2.0343017578125	-3.33953857421875E-05
-2.04437255859375	-3.240966796875E-05
-2.054443359375	-3.216552734375E-05
-2.06451416015625	-3.22113037109375E-05
-2.0745849609375	-3.2611083984375E-05
-2.08465576171875	-3.282470703125E-05
-2.0947265625	-3.36456298828125E-05
-2.10479736328125	-3.4368896484375E-05
-2.0947265625	-2.72674560546875E-05
-2.08465576171875	-2.230224609375E-05
-2.0745849609375	-1.89483642578125E-05
-2.06451416015625	-1.62628173828125E-05
-2.054443359375	-1.41815185546875E-05
-2.04437255859375	-1.231689453125E-05
-2.0343017578125	-1.09832763671875E-05
-2.02423095703125	-9.7442626953125E-06
-2.01416015625	-8.72802734375E-06
-2.00408935546875	-7.861328125E-06
-1.9940185546875	-7.061767578125E-06
-1.98394775390625	-6.40869140625E-06
-1.973876953125	-5.82275390625E-06
-1.96380615234375	-5.1971435546875E-06
-1.9537353515625	-4.65087890625E-06
-1.94366455078125	-4.0802001953125E-06
-1.93359375	-3.631591796875E-06
-1.92352294921875	-3.05633544921875E-06
-1.9134521484375	-2.34161376953125E-06
-1.90338134765625	-1.35772705078125E-06
-1.893310546875	1.104736328125E-07
-1.88323974609375	3.01971435546875E-06
-1.8731689453125	9.22882080078125E-06
-1.86309814453125	2.51495361328125E-05
-1.85302734375	5.89874267578125E-05
-1.84295654296875	8.7664794921875E-05
-1.8328857421875	8.3221435546875E-05
-1.82281494140625	5.902099609375E-05
-1.812744140625	3.8427734375E-05
-1.80267333984375	2.53448486328125E-05
-1.7926025390625	1.71112060546875E-05
-1.78253173828125	1.181640625E-05
-1.7724609375	8.3740234375E-06
-1.76239013671875	6.1492919921875E-06
-1.7523193359375	4.620361328125E-06
-1.74224853515625	3.607177734375E-06
-1.732177734375	2.95196533203125E-06
-1.72210693359375	2.49237060546875E-06
-1.7120361328125	2.16064453125E-06
-1.70196533203125	1.944580078125E-06
-1.69189453125	1.7926025390625E-06
-1.68182373046875	1.68060302734375E-06
-1.6717529296875	1.5618896484375E-06
-1.66168212890625	1.48529052734375E-06
-1.651611328125	1.4202880859375E-06
-1.64154052734375	1.35894775390625E-06
-1.6314697265625	1.30096435546875E-06
-1.62139892578125	1.2420654296875E-06
-1.611328125	1.2042236328125E-06
-1.60125732421875	1.17279052734375E-06
-1.5911865234375	1.1456298828125E-06
-1.58111572265625	1.11663818359375E-06
-1.571044921875	1.0943603515625E-06
-1.56097412109375	1.09771728515625E-06
-1.5509033203125	1.0833740234375E-06
-1.54083251953125	1.064453125E-06
-1.53076171875	1.04034423828125E-06
-1.52069091796875	1.03485107421875E-06
-1.5106201171875	1.0186767578125E-06
-1.50054931640625	9.82666015625E-07
-1.490478515625	9.5428466796875E-07
-1.48040771484375	9.2559814453125E-07
-1.4703369140625	9.075927734375E-07
-1.46026611328125	8.770751953125E-07
-1.4501953125	8.404541015625E-07
-1.44012451171875	8.1390380859375E-07
-1.4300537109375	7.9376220703125E-07
-1.41998291015625	7.77587890625E-07
-1.409912109375	7.373046875E-07
-1.39984130859375	7.1685791015625E-07
-1.3897705078125	7.025146484375E-07
-1.37969970703125	6.73828125E-07
-1.36962890625	6.4300537109375E-07
-1.35955810546875	6.158447265625E-07
-1.3494873046875	5.999755859375E-07
-1.33941650390625	5.82275390625E-07
-1.329345703125	5.621337890625E-07
-1.31927490234375	5.33447265625E-07
-1.3092041015625	5.1788330078125E-07
-1.29913330078125	5.1666259765625E-07
-1.2890625	5.035400390625E-07
-1.27899169921875	4.8675537109375E-07
-1.2689208984375	4.7882080078125E-07
-1.25885009765625	4.8553466796875E-07
-1.248779296875	4.852294921875E-07
-1.23870849609375	4.7576904296875E-07
-1.2286376953125	4.71923828125E-07
-1.21856689453125	4.705810546875E-07
-1.20849609375	4.81201171875E-07
-1.19842529296875	4.78057861328125E-07
-1.1883544921875	4.7027587890625E-07
-1.17828369140625	4.7503662109375E-07
-1.168212890625	4.81292724609375E-07
-1.15814208984375	4.83673095703125E-07
-1.1480712890625	4.7808837890625E-07
-1.13800048828125	4.77630615234375E-07
-1.1279296875	4.83306884765625E-07
-1.11785888671875	4.87213134765625E-07
-1.1077880859375	4.8046875E-07
-1.09771728515625	4.78485107421875E-07
-1.087646484375	4.86724853515625E-07
-1.07757568359375	4.871826171875E-07
-1.0675048828125	4.835205078125E-07
-1.05743408203125	4.7607421875E-07
-1.04736328125	4.80743408203125E-07
-1.03729248046875	4.89410400390625E-07
-1.0272216796875	4.884033203125E-07
-1.01715087890625	4.8150634765625E-07
-1.007080078125	4.80987548828125E-07
-0.99700927734375	4.89349365234375E-07
-0.9869384765625	4.932861328125E-07
-0.97686767578125	4.87213134765625E-07
-0.966796875	4.86114501953125E-07
-0.95672607421875	4.89410400390625E-07
-0.9466552734375	4.9822998046875E-07
-0.93658447265625	4.9200439453125E-07
-0.926513671875	4.92095947265625E-07
-0.91644287109375	4.94140625E-07
-0.9063720703125	5.03204345703125E-07
-0.89630126953125	5.05279541015625E-07
-0.88623046875	5.0335693359375E-07
-0.87615966796875	5.09307861328125E-07
-0.8660888671875	5.1446533203125E-07
-0.85601806640625	5.1947021484375E-07
-0.845947265625	5.1690673828125E-07
-0.83587646484375	5.181884765625E-07
-0.8258056640625	5.301513671875E-07
-0.81573486328125	5.3924560546875E-07
-0.8056640625	5.45166015625E-07
-0.79559326171875	5.4718017578125E-07
-0.7855224609375	5.5841064453125E-07
-0.77545166015625	5.6903076171875E-07
-0.765380859375	5.7470703125E-07
-0.75531005859375	5.791015625E-07
-0.7452392578125	5.86700439453125E-07
-0.73516845703125	5.96771240234375E-07
-0.72509765625	6.03912353515625E-07
-0.71502685546875	6.0699462890625E-07
-0.7049560546875	6.109619140625E-07
-0.69488525390625	6.18896484375E-07
-0.684814453125	6.231689453125E-07
-0.67474365234375	6.2225341796875E-07
-0.6646728515625	6.2164306640625E-07
-0.65460205078125	6.2255859375E-07
-0.64453125	6.243896484375E-07
-0.63446044921875	6.2408447265625E-07
-0.6243896484375	6.18896484375E-07
-0.61431884765625	6.2103271484375E-07
-0.604248046875	6.219482421875E-07
-0.59417724609375	6.2286376953125E-07
-0.5841064453125	6.2286376953125E-07
-0.57403564453125	6.2744140625E-07
-0.56396484375	6.317138671875E-07
-0.55389404296875	6.378173828125E-07
-0.5438232421875	6.43310546875E-07
-0.53375244140625	6.4849853515625E-07
-0.523681640625	6.5521240234375E-07
-0.51361083984375	6.640625E-07
-0.5035400390625	6.6986083984375E-07
-0.49346923828125	6.744384765625E-07
-0.4833984375	6.8023681640625E-07
-0.47332763671875	6.8450927734375E-07
-0.4632568359375	6.8939208984375E-07
-0.45318603515625	6.9183349609375E-07
-0.443115234375	6.939697265625E-07
-0.43304443359375	6.97021484375E-07
-0.4229736328125	6.99462890625E-07
-0.41290283203125	7.000732421875E-07
-0.40283203125	7.0159912109375E-07
-0.39276123046875	7.0281982421875E-07
-0.3826904296875	7.0648193359375E-07
-0.37261962890625	7.0587158203125E-07
-0.362548828125	7.0587158203125E-07
-0.35247802734375	7.0770263671875E-07
-0.3424072265625	7.0953369140625E-07
-0.33233642578125	7.110595703125E-07
-0.322265625	7.1014404296875E-07
-0.31219482421875	7.1136474609375E-07
-0.3021240234375	7.1319580078125E-07
-0.29205322265625	7.1441650390625E-07
-0.281982421875	7.1502685546875E-07
-0.27191162109375	7.1502685546875E-07
-0.2618408203125	7.171630859375E-07
-0.25177001953125	7.2113037109375E-07
-0.24169921875	7.2418212890625E-07
-0.23162841796875	7.26318359375E-07
-0.2215576171875	7.318115234375E-07
-0.21148681640625	7.3974609375E-07
-0.201416015625	7.476806640625E-07
-0.19134521484375	7.5653076171875E-07
-0.1812744140625	7.6690673828125E-07
-0.17120361328125	7.8125E-07
-0.1611328125	7.9925537109375E-07
-0.15106201171875	8.1817626953125E-07
-0.1409912109375	8.392333984375E-07
-0.13092041015625	8.6456298828125E-07
-0.120849609375	8.9630126953125E-07
-0.11077880859375	9.31396484375E-07
-0.1007080078125	9.7015380859375E-07
-0.09063720703125	1.015625E-06
-0.08056640625	1.06842041015625E-06
-0.07049560546875	1.1279296875E-06
-0.0604248046875	1.1944580078125E-06
-0.05035400390625	1.26953125E-06
-0.040283203125	1.3543701171875E-06
-0.03021240234375	1.4483642578125E-06
-0.0201416015625	1.552734375E-06
-0.01007080078125	1.66839599609375E-06
0	1.79534912109375E-06
0.01007080078125	1.934814453125E-06
0.0201416015625	2.08282470703125E-06
0.03021240234375	2.23968505859375E-06
0.040283203125	2.39959716796875E-06
0.05035400390625	2.55767822265625E-06
0.0604248046875	2.703857421875E-06
0.07049560546875	2.83599853515625E-06
0.08056640625	2.94647216796875E-06
0.09063720703125	3.03680419921875E-06
0.1007080078125	3.10699462890625E-06
0.11077880859375	3.16741943359375E-06
0.120849609375	3.2196044921875E-06
0.13092041015625	3.26873779296875E-06
0.1409912109375	3.3148193359375E-06
0.15106201171875	3.37158203125E-06
0.1611328125	3.4423828125E-06
0.17120361328125	3.52142333984375E-06
0.1812744140625	3.61236572265625E-06
0.19134521484375	3.7115478515625E-06
0.201416015625	3.8385009765625E-06
0.21148681640625	3.9630126953125E-06
0.2215576171875	4.088134765625E-06
0.23162841796875	4.2462158203125E-06
0.24169921875	4.3963623046875E-06
0.25177001953125	4.5684814453125E-06
0.2618408203125	4.80010986328125E-06
0.27191162109375	5.05706787109375E-06
0.281982421875	5.31524658203125E-06
0.29205322265625	5.62469482421875E-06
0.3021240234375	6.0113525390625E-06
0.31219482421875	6.3934326171875E-06
0.322265625	6.8389892578125E-06
0.33233642578125	7.2845458984375E-06
0.3424072265625	7.6751708984375E-06
0.35247802734375	8.02001953125E-06
0.362548828125	8.245849609375E-06
0.37261962890625	8.258056640625E-06
0.3826904296875	7.9833984375E-06
0.39276123046875	7.5042724609375E-06
0.40283203125	6.99462890625E-06
0.39276123046875	4.6844482421875E-06
0.3826904296875	3.331298828125E-06
0.37261962890625	2.449951171875E-06
0.362548828125	1.8475341796875E-06
0.35247802734375	1.41510009765625E-06
0.3424072265625	1.10137939453125E-06
0.33233642578125	8.599853515625E-07
0.322265625	6.732177734375E-07
0.31219482421875	5.291748046875E-07
0.3021240234375	4.071044921875E-07
0.29205322265625	3.1854248046875E-07
0.281982421875	2.40814208984375E-07
0.27191162109375	1.7620849609375E-07
0.2618408203125	1.2255859375E-07
0.25177001953125	7.7911376953125E-08
0.24169921875	3.851318359375E-08
0.23162841796875	4.39453125E-09
0.2215576171875	-2.313232421875E-08
0.21148681640625	-4.8370361328125E-08
0.201416015625	-7.0037841796875E-08
0.19134521484375	-8.9874267578125E-08
0.1812744140625	-1.06201171875E-07
0.17120361328125	-1.2200927734375E-07
0.1611328125	-1.3623046875E-07
0.15106201171875	-1.47613525390625E-07
0.1409912109375	-1.5936279296875E-07
0.13092041015625	-1.69647216796875E-07
0.120849609375	-1.7913818359375E-07
0.11077880859375	-1.88690185546875E-07
0.1007080078125	-1.96319580078125E-07
0.09063720703125	-2.0330810546875E-07
0.08056640625	-2.1099853515625E-07
0.07049560546875	-2.1807861328125E-07
0.0604248046875	-2.2442626953125E-07
0.05035400390625	-2.30560302734375E-07
0.040283203125	-2.3681640625E-07
0.03021240234375	-2.430419921875E-07
0.0201416015625	-2.48931884765625E-07
0.01007080078125	-2.54547119140625E-07
0	-2.59429931640625E-07
-0.01007080078125	-2.6470947265625E-07
-0.0201416015625	-2.7069091796875E-07
-0.03021240234375	-2.75604248046875E-07
-0.040283203125	-2.81341552734375E-07
-0.05035400390625	-2.85980224609375E-07
-0.0604248046875	-2.91259765625E-07
-0.07049560546875	-2.95135498046875E-07
-0.08056640625	-2.95989990234375E-07
-0.09063720703125	-2.9730224609375E-07
-0.1007080078125	-2.97454833984375E-07
-0.11077880859375	-2.989501953125E-07
-0.120849609375	-3.0010986328125E-07
-0.13092041015625	-3.02032470703125E-07
-0.1409912109375	-3.03955078125E-07
-0.15106201171875	-3.03466796875E-07
-0.1611328125	-3.0548095703125E-07
-0.17120361328125	-3.05877685546875E-07
-0.1812744140625	-3.0841064453125E-07
-0.19134521484375	-3.09173583984375E-07
-0.201416015625	-3.09417724609375E-07
-0.21148681640625	-3.11492919921875E-07
-0.2215576171875	-3.13323974609375E-07
-0.23162841796875	-3.15093994140625E-07
-0.24169921875	-3.1561279296875E-07
-0.25177001953125	-3.17291259765625E-07
-0.2618408203125	-3.194580078125E-07
-0.27191162109375	-3.21014404296875E-07
-0.281982421875	-3.22174072265625E-07
-0.29205322265625	-3.23150634765625E-07
-0.3021240234375	-3.26385498046875E-07
-0.31219482421875	-3.280029296875E-07
-0.322265625	-3.30291748046875E-07
-0.33233642578125	-3.3160400390625E-07
-0.3424072265625	-3.32611083984375E-07
-0.35247802734375	-3.35479736328125E-07
-0.362548828125	-3.3831787109375E-07
-0.37261962890625	-3.402099609375E-07
-0.3826904296875	-3.41644287109375E-07
-0.39276123046875	-3.4405517578125E-07
-0.40283203125	-3.472900390625E-07
-0.41290283203125	-3.4918212890625E-07
-0.4229736328125	-3.51409912109375E-07
-0.43304443359375	-3.52691650390625E-07
-0.443115234375	-3.56689453125E-07
-0.45318603515625	-3.59649658203125E-07
-0.4632568359375	-3.6138916015625E-07
-0.47332763671875	-3.63800048828125E-07
-0.4833984375	-3.66943359375E-07
-0.49346923828125	-3.7066650390625E-07
-0.5035400390625	-3.73046875E-07
-0.51361083984375	-3.746337890625E-07
-0.523681640625	-3.785400390625E-07
-0.53375244140625	-3.81011962890625E-07
-0.5438232421875	-3.85528564453125E-07
-0.55389404296875	-3.8665771484375E-07
-0.56396484375	-3.8934326171875E-07
-0.57403564453125	-3.94012451171875E-07
-0.5841064453125	-3.9788818359375E-07
-0.59417724609375	-4.00909423828125E-07
-0.604248046875	-4.0313720703125E-07
-0.61431884765625	-4.0814208984375E-07
-0.6243896484375	-4.1339111328125E-07
-0.63446044921875	-4.1729736328125E-07
-0.64453125	-4.20867919921875E-07
-0.65460205078125	-4.26910400390625E-07
-0.6646728515625	-4.3408203125E-07
-0.67474365234375	-4.39483642578125E-07
-0.684814453125	-4.444580078125E-07
-0.69488525390625	-4.50225830078125E-07
-0.7049560546875	-4.5916748046875E-07
-0.71502685546875	-4.66827392578125E-07
-0.72509765625	-4.7259521484375E-07
-0.73516845703125	-4.7967529296875E-07
-0.7452392578125	-4.87091064453125E-07
-0.75531005859375	-4.99114990234375E-07
-0.765380859375	-5.06622314453125E-07
-0.77545166015625	-5.123291015625E-07
-0.7855224609375	-5.23193359375E-07
-0.79559326171875	-5.34942626953125E-07
-0.8056640625	-5.467529296875E-07
-0.81573486328125	-5.531005859375E-07
-0.8258056640625	-5.618896484375E-07
-0.83587646484375	-5.7708740234375E-07
-0.845947265625	-5.88836669921875E-07
-0.85601806640625	-5.99151611328125E-07
-0.8660888671875	-6.05926513671875E-07
-0.87615966796875	-6.18896484375E-07
-0.88623046875	-6.365966796875E-07
-0.89630126953125	-6.463623046875E-07
-0.9063720703125	-6.512451171875E-07
-0.91644287109375	-6.60400390625E-07
-0.926513671875	-6.7962646484375E-07
-0.93658447265625	-6.9000244140625E-07
-0.9466552734375	-6.927490234375E-07
-0.95672607421875	-6.9915771484375E-07
-0.966796875	-7.135009765625E-07
-0.97686767578125	-7.2723388671875E-07
-0.9869384765625	-7.32421875E-07
-0.99700927734375	-7.403564453125E-07
-1.007080078125	-7.525634765625E-07
-1.01715087890625	-7.6934814453125E-07
-1.0272216796875	-7.7972412109375E-07
-1.03729248046875	-7.8338623046875E-07
-1.04736328125	-7.9742431640625E-07
-1.05743408203125	-8.1207275390625E-07
-1.0675048828125	-8.258056640625E-07
-1.07757568359375	-8.3526611328125E-07
-1.087646484375	-8.4747314453125E-07
-1.09771728515625	-8.660888671875E-07
-1.1077880859375	-8.8104248046875E-07
-1.11785888671875	-8.9111328125E-07
-1.1279296875	-9.0057373046875E-07
-1.13800048828125	-9.210205078125E-07
-1.1480712890625	-9.332275390625E-07
-1.15814208984375	-9.4207763671875E-07
-1.168212890625	-9.466552734375E-07
-1.17828369140625	-9.5794677734375E-07
-1.1883544921875	-9.735107421875E-07
-1.19842529296875	-9.765625E-07
-1.20849609375	-9.7900390625E-07
-1.21856689453125	-9.820556640625E-07
-1.2286376953125	-9.967041015625E-07
-1.23870849609375	-1.00433349609375E-06
-1.248779296875	-1.004638671875E-06
-1.25885009765625	-1.007080078125E-06
-1.2689208984375	-1.01715087890625E-06
-1.27899169921875	-1.0302734375E-06
-1.2890625	-1.03118896484375E-06
-1.29913330078125	-1.033935546875E-06
-1.3092041015625	-1.04217529296875E-06
-1.31927490234375	-1.058349609375E-06
-1.329345703125	-1.0699462890625E-06
-1.33941650390625	-1.07086181640625E-06
-1.3494873046875	-1.083984375E-06
-1.35955810546875	-1.10321044921875E-06
-1.36962890625	-1.12396240234375E-06
-1.37969970703125	-1.1376953125E-06
-1.3897705078125	-1.15325927734375E-06
-1.39984130859375	-1.1846923828125E-06
-1.409912109375	-1.21826171875E-06
-1.41998291015625	-1.251220703125E-06
-1.4300537109375	-1.27960205078125E-06
-1.44012451171875	-1.32598876953125E-06
-1.4501953125	-1.3848876953125E-06
-1.46026611328125	-1.43280029296875E-06
-1.4703369140625	-1.49444580078125E-06
-1.48040771484375	-1.56036376953125E-06
-1.490478515625	-1.65252685546875E-06
-1.50054931640625	-1.73919677734375E-06
-1.5106201171875	-1.8304443359375E-06
-1.52069091796875	-1.94000244140625E-06
-1.53076171875	-2.073974609375E-06
-1.54083251953125	-2.22808837890625E-06
-1.5509033203125	-2.3828125E-06
-1.56097412109375	-2.55706787109375E-06
-1.571044921875	-2.76885986328125E-06
-1.58111572265625	-3.02642822265625E-06
-1.5911865234375	-3.30810546875E-06
-1.60125732421875	-3.62030029296875E-06
-1.611328125	-4.02374267578125E-06
-1.62139892578125	-4.53125E-06
-1.6314697265625	-5.18402099609375E-06
-1.64154052734375	-6.0845947265625E-06
-1.651611328125	-7.3699951171875E-06
-1.66168212890625	-9.100341796875E-06
-1.6717529296875	-1.09710693359375E-05
-1.68182373046875	-1.25579833984375E-05
-1.69189453125	-1.392822265625E-05
-1.70196533203125	-1.53228759765625E-05
-1.7120361328125	-1.67083740234375E-05
-1.72210693359375	-1.80084228515625E-05
-1.732177734375	-1.91436767578125E-05
-1.74224853515625	-2.003173828125E-05
-1.7523193359375	-2.0819091796875E-05
-1.76239013671875	-2.14599609375E-05
-1.7724609375	-2.20458984375E-05
-1.78253173828125	-2.26470947265625E-05
-1.7926025390625	-2.31842041015625E-05
-1.80267333984375	-2.34283447265625E-05
-1.812744140625	-2.33001708984375E-05
-1.82281494140625	-2.3248291015625E-05
-1.8328857421875	-2.437744140625E-05
-1.84295654296875	-2.79754638671875E-05
-1.85302734375	-3.58062744140625E-05
-1.86309814453125	-5.0299072265625E-05
-1.8731689453125	-7.4444580078125E-05
-1.88323974609375	-0.000109588623046875
-1.893310546875	-0.0001419677734375
-1.90338134765625	-0.000129730224609375
-1.9134521484375	-8.3740234375E-05
-1.92352294921875	-5.2093505859375E-05
-1.93359375	-3.91265869140625E-05
-1.94366455078125	-3.4613037109375E-05
-1.9537353515625	-3.26873779296875E-05
-1.96380615234375	-3.2452392578125E-05
-1.973876953125	-3.23974609375E-05
-1.98394775390625	-3.17718505859375E-05
-1.9940185546875	-3.1005859375E-05
-2.00408935546875	-2.9864501953125E-05
-2.01416015625	-2.9156494140625E-05
-2.02423095703125	-2.833251953125E-05
-2.0343017578125	-2.78076171875E-05
-2.04437255859375	-2.7789306640625E-05
-2.054443359375	-2.84423828125E-05
-2.06451416015625	-2.9083251953125E-05
-2.0745849609375	-3.02947998046875E-05
-2.08465576171875	-3.15216064453125E-05
-2.0947265625	-3.3258056640625E-05
-2.10479736328125	-3.548583984375E-05
-2.0947265625	-2.8228759765625E-05
-2.08465576171875	-2.33795166015625E-05
-2.0745849609375	-1.97540283203125E-05
-2.06451416015625	-1.697998046875E-05
-2.054443359375	-1.48162841796875E-05
-2.04437255859375	-1.30584716796875E-05
-2.0343017578125	-1.141357421875E-05
-2.02423095703125	-1.00982666015625E-05
-2.01416015625	-9.0362548828125E-06
-2.00408935546875	-8.0902099609375E-06
-1.9940185546875	-7.196044921875E-06
-1.98394775390625	-6.353759765625E-06
-1.973876953125	-5.7098388671875E-06
-1.96380615234375	-5.120849609375E-06
-1.9537353515625	-4.4952392578125E-06
-1.94366455078125	-3.887939453125E-06
-1.93359375	-3.3355712890625E-06
-1.92352294921875	-2.69683837890625E-06
-1.9134521484375	-1.8865966796875E-06
-1.90338134765625	-8.02001953125E-07
-1.893310546875	8.3251953125E-07
-1.88323974609375	3.896484375E-06
-1.8731689453125	9.96063232421875E-06
-1.86309814453125	2.7056884765625E-05
-1.85302734375	6.13861083984375E-05
-1.84295654296875	8.8470458984375E-05
-1.8328857421875	7.9803466796875E-05
-1.82281494140625	5.48095703125E-05
-1.812744140625	3.51470947265625E-05
-1.80267333984375	2.28668212890625E-05
-1.7926025390625	1.5203857421875E-05
-1.78253173828125	1.04248046875E-05
-1.7724609375	7.4249267578125E-06
-1.76239013671875	5.572509765625E-06
-1.7523193359375	4.315185546875E-06
-1.74224853515625	3.47625732421875E-06
-1.732177734375	2.93121337890625E-06
-1.72210693359375	2.548828125E-06
-1.7120361328125	2.27020263671875E-06
-1.70196533203125	2.0501708984375E-06
-1.69189453125	1.8804931640625E-06
-1.68182373046875	1.76483154296875E-06
-1.6717529296875	1.64794921875E-06
-1.66168212890625	1.54632568359375E-06
-1.651611328125	1.451416015625E-06
-1.64154052734375	1.3885498046875E-06
-1.6314697265625	1.3323974609375E-06
-1.62139892578125	1.26495361328125E-06
-1.611328125	1.21612548828125E-06
-1.60125732421875	1.182861328125E-06
-1.5911865234375	1.182861328125E-06
-1.58111572265625	1.14898681640625E-06
-1.571044921875	1.12884521484375E-06
-1.56097412109375	1.12701416015625E-06
-1.5509033203125	1.1328125E-06
-1.54083251953125	1.12640380859375E-06
-1.53076171875	1.11175537109375E-06
-1.52069091796875	1.09283447265625E-06
-1.5106201171875	1.082763671875E-06
-1.50054931640625	1.06109619140625E-06
-1.490478515625	1.0174560546875E-06
-1.48040771484375	9.7747802734375E-07
-1.4703369140625	9.58251953125E-07
-1.46026611328125	9.320068359375E-07
-1.4501953125	8.9019775390625E-07
-1.44012451171875	8.453369140625E-07
-1.4300537109375	8.2000732421875E-07
-1.41998291015625	7.9986572265625E-07
-1.409912109375	7.6568603515625E-07
-1.39984130859375	7.2540283203125E-07
-1.3897705078125	6.982421875E-07
-1.37969970703125	6.77490234375E-07
-1.36962890625	6.5460205078125E-07
-1.35955810546875	6.2469482421875E-07
-1.3494873046875	6.0638427734375E-07
-1.33941650390625	5.9295654296875E-07
-1.329345703125	5.82275390625E-07
-1.31927490234375	5.56640625E-07
-1.3092041015625	5.4412841796875E-07
-1.29913330078125	5.4107666015625E-07
-1.2890625	5.3466796875E-07
-1.27899169921875	5.1849365234375E-07
-1.2689208984375	5.0384521484375E-07
-1.25885009765625	5.0872802734375E-07
-1.248779296875	5.04150390625E-07
-1.23870849609375	5.0079345703125E-07
-1.2286376953125	4.9224853515625E-07
-1.21856689453125	4.901123046875E-07
-1.20849609375	4.9652099609375E-07
-1.19842529296875	4.925537109375E-07
-1.1883544921875	4.8614501953125E-07
-1.17828369140625	4.783935546875E-07
-1.168212890625	4.8504638671875E-07
-1.15814208984375	4.84527587890625E-07
-1.1480712890625	4.78851318359375E-07
-1.13800048828125	4.75677490234375E-07
-1.1279296875	4.74456787109375E-07
-1.11785888671875	4.8236083984375E-07
-1.1077880859375	4.766845703125E-07
-1.09771728515625	4.7216796875E-07
-1.087646484375	4.73846435546875E-07
-1.07757568359375	4.7918701171875E-07
-1.0675048828125	4.8504638671875E-07
-1.05743408203125	4.7265625E-07
-1.04736328125	4.71099853515625E-07
-1.03729248046875	4.752197265625E-07
-1.0272216796875	4.80194091796875E-07
-1.01715087890625	4.7650146484375E-07
-1.007080078125	4.75372314453125E-07
-0.99700927734375	4.793701171875E-07
-0.9869384765625	4.8480224609375E-07
-0.97686767578125	4.8858642578125E-07
-0.966796875	4.805908203125E-07
-0.95672607421875	4.82879638671875E-07
-0.9466552734375	4.88922119140625E-07
-0.93658447265625	4.94598388671875E-07
-0.926513671875	4.93011474609375E-07
-0.91644287109375	4.90234375E-07
-0.9063720703125	4.98260498046875E-07
-0.89630126953125	5.0372314453125E-07
-0.88623046875	5.08453369140625E-07
-0.87615966796875	5.08453369140625E-07
-0.8660888671875	5.1165771484375E-07
-0.85601806640625	5.2374267578125E-07
-0.845947265625	5.3009033203125E-07
-0.83587646484375	5.3363037109375E-07
-0.8258056640625	5.37353515625E-07
-0.81573486328125	5.477294921875E-07
-0.8056640625	5.6121826171875E-07
-0.79559326171875	5.6756591796875E-07
-0.7855224609375	5.7562255859375E-07
-0.77545166015625	5.85296630859375E-07
-0.765380859375	5.9466552734375E-07
-0.75531005859375	6.0125732421875E-07
-0.7452392578125	6.0516357421875E-07
-0.73516845703125	6.1126708984375E-07
-0.72509765625	6.1676025390625E-07
-0.71502685546875	6.21337890625E-07
-0.7049560546875	6.1981201171875E-07
-0.69488525390625	6.2103271484375E-07
-0.684814453125	6.231689453125E-07
-0.67474365234375	6.23779296875E-07
-0.6646728515625	6.219482421875E-07
-0.65460205078125	6.18896484375E-07
-0.64453125	6.2103271484375E-07
-0.63446044921875	6.23779296875E-07
-0.6243896484375	6.2164306640625E-07
-0.61431884765625	6.2255859375E-07
-0.604248046875	6.25E-07
-0.59417724609375	6.298828125E-07
-0.5841064453125	6.3385009765625E-07
-0.57403564453125	6.3873291015625E-07
-0.56396484375	6.4605712890625E-07
-0.55389404296875	6.549072265625E-07
-0.5438232421875	6.6436767578125E-07
-0.53375244140625	6.72607421875E-07
-0.523681640625	6.817626953125E-07
-0.51361083984375	6.89697265625E-07
-0.5035400390625	6.988525390625E-07
-0.49346923828125	7.0831298828125E-07
-0.4833984375	7.122802734375E-07
-0.47332763671875	7.1807861328125E-07
-0.4632568359375	7.2265625E-07
-0.45318603515625	7.269287109375E-07
-0.443115234375	7.28759765625E-07
-0.43304443359375	7.2967529296875E-07
-0.4229736328125	7.318115234375E-07
-0.41290283203125	7.33642578125E-07
-0.40283203125	7.3333740234375E-07
-0.39276123046875	7.32421875E-07
-0.3826904296875	7.3516845703125E-07
-0.37261962890625	7.3516845703125E-07
-0.362548828125	7.354736328125E-07
-0.35247802734375	7.3516845703125E-07
-0.3424072265625	7.354736328125E-07
-0.33233642578125	7.3638916015625E-07
-0.322265625	7.354736328125E-07
-0.31219482421875	7.3394775390625E-07
-0.3021240234375	7.3333740234375E-07
-0.29205322265625	7.3272705078125E-07
-0.281982421875	7.32421875E-07
-0.27191162109375	7.3150634765625E-07
-0.2618408203125	7.305908203125E-07
-0.25177001953125	7.318115234375E-07
-0.24169921875	7.33642578125E-07
-0.23162841796875	7.3516845703125E-07
-0.2215576171875	7.3760986328125E-07
-0.21148681640625	7.4188232421875E-07
-0.201416015625	7.476806640625E-07
-0.19134521484375	7.550048828125E-07
-0.1812744140625	7.6385498046875E-07
-0.17120361328125	7.7484130859375E-07
-0.1611328125	7.8948974609375E-07
-0.15106201171875	8.0902099609375E-07
-0.1409912109375	8.28857421875E-07
-0.13092041015625	8.5296630859375E-07
-0.120849609375	8.8165283203125E-07
-0.11077880859375	9.1644287109375E-07
-0.1007080078125	9.5489501953125E-07
-0.09063720703125	9.9822998046875E-07
-0.08056640625	1.0479736328125E-06
-0.07049560546875	1.10565185546875E-06
-0.0604248046875	1.16912841796875E-06
-0.05035400390625	1.23931884765625E-06
-0.040283203125	1.31744384765625E-06
-0.03021240234375	1.4019775390625E-06
-0.0201416015625	1.4959716796875E-06
-0.01007080078125	1.59637451171875E-06
0	1.7047119140625E-06
0.01007080078125	1.8206787109375E-06
0.0201416015625	1.93878173828125E-06
0.03021240234375	2.06298828125E-06
0.040283203125	2.1875E-06
0.05035400390625	2.3065185546875E-06
0.0604248046875	2.41729736328125E-06
0.07049560546875	2.51983642578125E-06
0.08056640625	2.61199951171875E-06
0.09063720703125	2.694091796875E-06
0.1007080078125	2.7655029296875E-06
0.11077880859375	2.83294677734375E-06
0.120849609375	2.90069580078125E-06
0.13092041015625	2.974853515625E-06
0.1409912109375	3.04656982421875E-06
0.15106201171875	3.12652587890625E-06
0.1611328125	3.21563720703125E-06
0.17120361328125	3.32061767578125E-06
0.1812744140625	3.43353271484375E-06
0.19134521484375	3.54583740234375E-06
0.201416015625	3.66668701171875E-06
0.21148681640625	3.8067626953125E-06
0.2215576171875	3.96820068359375E-06
0.23162841796875	4.11224365234375E-06
0.24169921875	4.267578125E-06
0.25177001953125	4.47540283203125E-06
0.2618408203125	4.686279296875E-06
0.27191162109375	4.93133544921875E-06
0.281982421875	5.1416015625E-06
0.29205322265625	5.39886474609375E-06
0.3021240234375	5.70556640625E-06
0.31219482421875	5.980224609375E-06
0.322265625	6.30218505859375E-06
0.33233642578125	6.6741943359375E-06
0.3424072265625	7.1258544921875E-06
0.35247802734375	7.5897216796875E-06
0.362548828125	8.09326171875E-06
0.37261962890625	8.599853515625E-06
0.3826904296875	9.0423583984375E-06
0.39276123046875	9.283447265625E-06
0.40283203125	9.21630859375E-06
0.39276123046875	6.4422607421875E-06
0.3826904296875	4.67376708984375E-06
0.37261962890625	3.489990234375E-06
0.362548828125	2.66754150390625E-06
0.35247802734375	2.07061767578125E-06
0.3424072265625	1.62841796875E-06
0.33233642578125	1.2969970703125E-06
0.322265625	1.0382080078125E-06
0.31219482421875	8.319091796875E-07
0.3021240234375	6.6925048828125E-07
0.29205322265625	5.364990234375E-07
0.281982421875	4.241943359375E-07
0.27191162109375	3.34197998046875E-07
0.2618408203125	2.57598876953125E-07
0.25177001953125	1.91436767578125E-07
0.24169921875	1.34857177734375E-07
0.23162841796875	8.65478515625E-08
0.2215576171875	4.40673828125E-08
0.21148681640625	6.817626953125E-09
0.201416015625	-2.2216796875E-08
0.19134521484375	-4.754638671875E-08
0.1812744140625	-6.890869140625E-08
0.17120361328125	-8.5357666015625E-08
0.1611328125	-1.00006103515625E-07
0.15106201171875	-1.13006591796875E-07
0.1409912109375	-1.24603271484375E-07
0.13092041015625	-1.35284423828125E-07
0.120849609375	-1.439208984375E-07
0.11077880859375	-1.5264892578125E-07
0.1007080078125	-1.59271240234375E-07
0.09063720703125	-1.6595458984375E-07
0.08056640625	-1.7333984375E-07
0.07049560546875	-1.7950439453125E-07
0.0604248046875	-1.85699462890625E-07
0.05035400390625	-1.91009521484375E-07
0.040283203125	-1.96990966796875E-07
0.03021240234375	-2.017822265625E-07
0.0201416015625	-2.0782470703125E-07
0.01007080078125	-2.13287353515625E-07
0	-2.1783447265625E-07
-0.01007080078125	-2.230224609375E-07
-0.0201416015625	-2.28729248046875E-07
-0.03021240234375	-2.3486328125E-07
-0.040283203125	-2.431640625E-07
-0.05035400390625	-2.4981689453125E-07
-0.0604248046875	-2.56378173828125E-07
-0.07049560546875	-2.59429931640625E-07
-0.08056640625	-2.6043701171875E-07
-0.09063720703125	-2.60101318359375E-07
-0.1007080078125	-2.6019287109375E-07
-0.11077880859375	-2.606201171875E-07
-0.120849609375	-2.603759765625E-07
-0.13092041015625	-2.61810302734375E-07
-0.1409912109375	-2.6165771484375E-07
-0.15106201171875	-2.63885498046875E-07
-0.1611328125	-2.65380859375E-07
-0.17120361328125	-2.66265869140625E-07
-0.1812744140625	-2.672119140625E-07
-0.19134521484375	-2.68646240234375E-07
-0.201416015625	-2.71728515625E-07
-0.21148681640625	-2.72857666015625E-07
-0.2215576171875	-2.7374267578125E-07
-0.23162841796875	-2.76153564453125E-07
-0.24169921875	-2.78472900390625E-07
-0.25177001953125	-2.801513671875E-07
-0.2618408203125	-2.82257080078125E-07
-0.27191162109375	-2.82989501953125E-07
-0.281982421875	-2.85247802734375E-07
-0.29205322265625	-2.88238525390625E-07
-0.3021240234375	-2.90252685546875E-07
-0.31219482421875	-2.91412353515625E-07
-0.322265625	-2.9425048828125E-07
-0.33233642578125	-2.96783447265625E-07
-0.3424072265625	-2.9949951171875E-07
-0.35247802734375	-3.0096435546875E-07
-0.362548828125	-3.0255126953125E-07
-0.37261962890625	-3.06060791015625E-07
-0.3826904296875	-3.0804443359375E-07
-0.39276123046875	-3.104248046875E-07
-0.40283203125	-3.12103271484375E-07
-0.41290283203125	-3.1494140625E-07
-0.4229736328125	-3.187255859375E-07
-0.43304443359375	-3.20526123046875E-07
-0.443115234375	-3.22723388671875E-07
-0.45318603515625	-3.251953125E-07
-0.4632568359375	-3.29254150390625E-07
-0.47332763671875	-3.31787109375E-07
-0.4833984375	-3.33740234375E-07
-0.49346923828125	-3.3636474609375E-07
-0.5035400390625	-3.39935302734375E-07
-0.51361083984375	-3.43505859375E-07
-0.523681640625	-3.46038818359375E-07
-0.53375244140625	-3.4814453125E-07
-0.5438232421875	-3.5211181640625E-07
-0.55389404296875	-3.5546875E-07
-0.56396484375	-3.58673095703125E-07
-0.57403564453125	-3.60198974609375E-07
-0.5841064453125	-3.63739013671875E-07
-0.59417724609375	-3.6785888671875E-07
-0.604248046875	-3.71673583984375E-07
-0.61431884765625	-3.7445068359375E-07
-0.6243896484375	-3.765869140625E-07
-0.63446044921875	-3.8134765625E-07
-0.64453125	-3.86138916015625E-07
-0.65460205078125	-3.9056396484375E-07
-0.6646728515625	-3.93768310546875E-07
-0.67474365234375	-3.9935302734375E-07
-0.684814453125	-4.0576171875E-07
-0.69488525390625	-4.1107177734375E-07
-0.7049560546875	-4.15557861328125E-07
-0.71502685546875	-4.2071533203125E-07
-0.72509765625	-4.2877197265625E-07
-0.73516845703125	-4.3597412109375E-07
-0.7452392578125	-4.41650390625E-07
-0.75531005859375	-4.48394775390625E-07
-0.765380859375	-4.5697021484375E-07
-0.77545166015625	-4.6795654296875E-07
-0.7855224609375	-4.75189208984375E-07
-0.79559326171875	-4.8260498046875E-07
-0.8056640625	-4.91912841796875E-07
-0.81573486328125	-5.023193359375E-07
-0.8258056640625	-5.11627197265625E-07
-0.83587646484375	-5.19622802734375E-07
-0.845947265625	-5.27923583984375E-07
-0.85601806640625	-5.38818359375E-07
-0.8660888671875	-5.53253173828125E-07
-0.87615966796875	-5.61553955078125E-07
-0.88623046875	-5.69580078125E-07
-0.89630126953125	-5.81024169921875E-07
-0.9063720703125	-5.97625732421875E-07
-0.91644287109375	-6.1077880859375E-07
-0.926513671875	-6.1370849609375E-07
-0.93658447265625	-6.243896484375E-07
-0.9466552734375	-6.3812255859375E-07
-0.95672607421875	-6.50634765625E-07
-0.966796875	-6.591796875E-07
-0.97686767578125	-6.6619873046875E-07
-0.9869384765625	-6.8328857421875E-07
-0.99700927734375	-6.951904296875E-07
-1.007080078125	-7.06787109375E-07
-1.01715087890625	-7.171630859375E-07
-1.0272216796875	-7.275390625E-07
-1.03729248046875	-7.5042724609375E-07
-1.04736328125	-7.62939453125E-07
-1.05743408203125	-7.763671875E-07
-1.0675048828125	-7.87353515625E-07
-1.07757568359375	-8.11767578125E-07
-1.087646484375	-8.294677734375E-07
-1.09771728515625	-8.3984375E-07
-1.1077880859375	-8.5693359375E-07
-1.11785888671875	-8.758544921875E-07
-1.1279296875	-9.0118408203125E-07
-1.13800048828125	-9.1705322265625E-07
-1.1480712890625	-9.28955078125E-07
-1.15814208984375	-9.4482421875E-07
-1.168212890625	-9.661865234375E-07
-1.17828369140625	-9.7900390625E-07
-1.1883544921875	-9.8602294921875E-07
-1.19842529296875	-9.979248046875E-07
-1.20849609375	-1.01165771484375E-06
-1.21856689453125	-1.02813720703125E-06
-1.2286376953125	-1.03302001953125E-06
-1.23870849609375	-1.03302001953125E-06
-1.248779296875	-1.04705810546875E-06
-1.25885009765625	-1.0565185546875E-06
-1.2689208984375	-1.064453125E-06
-1.27899169921875	-1.06292724609375E-06
-1.2890625	-1.0699462890625E-06
-1.29913330078125	-1.08245849609375E-06
-1.3092041015625	-1.0906982421875E-06
-1.31927490234375	-1.09405517578125E-06
-1.329345703125	-1.09954833984375E-06
-1.33941650390625	-1.112060546875E-06
-1.3494873046875	-1.1260986328125E-06
-1.35955810546875	-1.13372802734375E-06
-1.36962890625	-1.14471435546875E-06
-1.37969970703125	-1.1627197265625E-06
-1.3897705078125	-1.19171142578125E-06
-1.39984130859375	-1.207275390625E-06
-1.409912109375	-1.22894287109375E-06
-1.41998291015625	-1.2567138671875E-06
-1.4300537109375	-1.3037109375E-06
-1.44012451171875	-1.3372802734375E-06
-1.4501953125	-1.3763427734375E-06
-1.46026611328125	-1.4263916015625E-06
-1.4703369140625	-1.485595703125E-06
-1.48040771484375	-1.54876708984375E-06
-1.490478515625	-1.614990234375E-06
-1.50054931640625	-1.6937255859375E-06
-1.5106201171875	-1.795654296875E-06
-1.52069091796875	-1.88720703125E-06
-1.53076171875	-2.001953125E-06
-1.54083251953125	-2.1356201171875E-06
-1.5509033203125	-2.27691650390625E-06
-1.56097412109375	-2.4261474609375E-06
-1.571044921875	-2.62298583984375E-06
-1.58111572265625	-2.82196044921875E-06
-1.5911865234375	-3.0413818359375E-06
-1.60125732421875	-3.31787109375E-06
-1.611328125	-3.6163330078125E-06
-1.62139892578125	-3.9581298828125E-06
-1.6314697265625	-4.36981201171875E-06
-1.64154052734375	-4.86480712890625E-06
-1.651611328125	-5.46905517578125E-06
-1.66168212890625	-6.26800537109375E-06
-1.6717529296875	-7.4310302734375E-06
-1.68182373046875	-9.002685546875E-06
-1.69189453125	-1.08978271484375E-05
-1.70196533203125	-1.287841796875E-05
-1.7120361328125	-1.480712890625E-05
-1.72210693359375	-1.6619873046875E-05
-1.732177734375	-1.83746337890625E-05
-1.74224853515625	-2.001953125E-05
-1.7523193359375	-2.14202880859375E-05
-1.76239013671875	-2.255859375E-05
-1.7724609375	-2.340087890625E-05
-1.78253173828125	-2.41668701171875E-05
-1.7926025390625	-2.5018310546875E-05
-1.80267333984375	-2.58056640625E-05
-1.812744140625	-2.6214599609375E-05
-1.82281494140625	-2.60955810546875E-05
-1.8328857421875	-2.6080322265625E-05
-1.84295654296875	-2.76214599609375E-05
-1.85302734375	-3.3367919921875E-05
-1.86309814453125	-4.64385986328125E-05
-1.8731689453125	-7.0928955078125E-05
-1.88323974609375	-0.00010894775390625
-1.893310546875	-0.00014593505859375
-1.90338134765625	-0.0001334228515625
-1.9134521484375	-8.154296875E-05
-1.92352294921875	-4.6881103515625E-05
-1.93359375	-3.49365234375E-05
-1.94366455078125	-3.1817626953125E-05
-1.9537353515625	-3.13995361328125E-05
-1.96380615234375	-3.193359375E-05
-1.973876953125	-3.251953125E-05
-1.98394775390625	-3.24554443359375E-05
-1.9940185546875	-3.19671630859375E-05
-2.00408935546875	-3.15460205078125E-05
-2.01416015625	-3.05267333984375E-05
-2.02423095703125	-2.97637939453125E-05
-2.0343017578125	-2.93182373046875E-05
-2.04437255859375	-2.91900634765625E-05
-2.054443359375	-2.9656982421875E-05
-2.06451416015625	-3.04290771484375E-05
-2.0745849609375	-3.170166015625E-05
-2.08465576171875	-3.33770751953125E-05
-2.0947265625	-3.55865478515625E-05
-2.10479736328125	-3.8543701171875E-05
-2.0947265625	-3.03680419921875E-05
-2.08465576171875	-2.51434326171875E-05
-2.0745849609375	-2.1258544921875E-05
-2.06451416015625	-1.80999755859375E-05
-2.054443359375	-1.56341552734375E-05
-2.04437255859375	-1.368408203125E-05
-2.0343017578125	-1.20025634765625E-05
-2.02423095703125	-1.0565185546875E-05
-2.01416015625	-9.4268798828125E-06
-2.00408935546875	-8.3770751953125E-06
-1.9940185546875	-7.4371337890625E-06
-1.98394775390625	-6.6253662109375E-06
-1.973876953125	-5.9356689453125E-06
-1.96380615234375	-5.2581787109375E-06
-1.9537353515625	-4.620361328125E-06
-1.94366455078125	-4.0863037109375E-06
-1.93359375	-3.406982421875E-06
-1.92352294921875	-2.7618408203125E-06
-1.9134521484375	-1.94244384765625E-06
-1.90338134765625	-8.7005615234375E-07
-1.893310546875	8.270263671875E-07
-1.88323974609375	3.91754150390625E-06
-1.8731689453125	9.9884033203125E-06
-1.86309814453125	2.7001953125E-05
-1.85302734375	6.192626953125E-05
-1.84295654296875	8.746337890625E-05
-1.8328857421875	7.51953125E-05
-1.82281494140625	4.9835205078125E-05
-1.812744140625	3.13995361328125E-05
-1.80267333984375	2.01995849609375E-05
-1.7926025390625	1.3433837890625E-05
-1.78253173828125	9.3231201171875E-06
-1.7724609375	6.842041015625E-06
-1.76239013671875	5.2276611328125E-06
-1.7523193359375	4.2083740234375E-06
-1.74224853515625	3.494873046875E-06
-1.732177734375	3.0010986328125E-06
-1.72210693359375	2.6507568359375E-06
-1.7120361328125	2.39044189453125E-06
-1.70196533203125	2.18780517578125E-06
-1.69189453125	2.0172119140625E-06
-1.68182373046875	1.898193359375E-06
-1.6717529296875	1.78436279296875E-06
-1.66168212890625	1.6864013671875E-06
-1.651611328125	1.61407470703125E-06
-1.64154052734375	1.541748046875E-06
-1.6314697265625	1.4776611328125E-06
-1.62139892578125	1.42974853515625E-06
-1.611328125	1.39678955078125E-06
-1.60125732421875	1.35528564453125E-06
-1.5911865234375	1.32171630859375E-06
-1.58111572265625	1.30645751953125E-06
-1.571044921875	1.27899169921875E-06
-1.56097412109375	1.2469482421875E-06
-1.5509033203125	1.22589111328125E-06
-1.54083251953125	1.20086669921875E-06
-1.53076171875	1.1651611328125E-06
-1.52069091796875	1.124267578125E-06
-1.5106201171875	1.0980224609375E-06
-1.50054931640625	1.04827880859375E-06
-1.490478515625	1.00128173828125E-06
-1.48040771484375	9.5458984375E-07
-1.4703369140625	9.11865234375E-07
-1.46026611328125	8.5662841796875E-07
-1.4501953125	8.09326171875E-07
-1.44012451171875	7.71484375E-07
-1.4300537109375	7.208251953125E-07
-1.41998291015625	6.7352294921875E-07
-1.409912109375	6.40869140625E-07
-1.39984130859375	6.0821533203125E-07
-1.3897705078125	5.6854248046875E-07
-1.37969970703125	5.37109375E-07
-1.36962890625	5.18798828125E-07
-1.35955810546875	4.8858642578125E-07
-1.3494873046875	4.7149658203125E-07
-1.33941650390625	4.547119140625E-07
-1.329345703125	4.4219970703125E-07
-1.31927490234375	4.2724609375E-07
-1.3092041015625	4.12017822265625E-07
-1.29913330078125	4.124755859375E-07
-1.2890625	3.9630126953125E-07
-1.27899169921875	3.8739013671875E-07
-1.2689208984375	3.8775634765625E-07
-1.25885009765625	3.8519287109375E-07
-1.248779296875	3.7750244140625E-07
-1.23870849609375	3.7152099609375E-07
-1.2286376953125	3.79638671875E-07
-1.21856689453125	3.7176513671875E-07
-1.20849609375	3.66943359375E-07
-1.19842529296875	3.720703125E-07
-1.1883544921875	3.72650146484375E-07
-1.17828369140625	3.67462158203125E-07
-1.168212890625	3.60595703125E-07
-1.15814208984375	3.7213134765625E-07
-1.1480712890625	3.67828369140625E-07
-1.13800048828125	3.70452880859375E-07
-1.1279296875	3.7420654296875E-07
-1.11785888671875	3.73931884765625E-07
-1.1077880859375	3.7628173828125E-07
-1.09771728515625	3.7249755859375E-07
-1.087646484375	3.8433837890625E-07
-1.07757568359375	3.7823486328125E-07
-1.0675048828125	3.83331298828125E-07
-1.05743408203125	3.9068603515625E-07
-1.04736328125	3.973388671875E-07
-1.03729248046875	3.9495849609375E-07
-1.0272216796875	3.98193359375E-07
-1.01715087890625	4.08233642578125E-07
-1.007080078125	4.13482666015625E-07
-0.99700927734375	4.130859375E-07
-0.9869384765625	4.19708251953125E-07
-0.97686767578125	4.254150390625E-07
-0.966796875	4.2901611328125E-07
-0.95672607421875	4.285888671875E-07
-0.9466552734375	4.37164306640625E-07
-0.93658447265625	4.42230224609375E-07
-0.926513671875	4.422607421875E-07
-0.91644287109375	4.47418212890625E-07
-0.9063720703125	4.520263671875E-07
-0.89630126953125	4.559326171875E-07
-0.88623046875	4.5867919921875E-07
-0.87615966796875	4.669189453125E-07
-0.8660888671875	4.6978759765625E-07
-0.85601806640625	4.73968505859375E-07
-0.845947265625	4.8223876953125E-07
-0.83587646484375	4.886474609375E-07
-0.8258056640625	4.94720458984375E-07
-0.81573486328125	4.97802734375E-07
-0.8056640625	5.07171630859375E-07
-0.79559326171875	5.14373779296875E-07
-0.7855224609375	5.20263671875E-07
-0.77545166015625	5.27435302734375E-07
-0.765380859375	5.33782958984375E-07
-0.75531005859375	5.40618896484375E-07
-0.7452392578125	5.44708251953125E-07
-0.73516845703125	5.53863525390625E-07
-0.72509765625	5.5987548828125E-07
-0.71502685546875	5.63720703125E-07
-0.7049560546875	5.68328857421875E-07
-0.69488525390625	5.73150634765625E-07
-0.684814453125	5.7904052734375E-07
-0.67474365234375	5.80963134765625E-07
-0.6646728515625	5.83831787109375E-07
-0.65460205078125	5.89508056640625E-07
-0.64453125	5.92620849609375E-07
-0.63446044921875	5.96771240234375E-07
-0.6243896484375	6.0015869140625E-07
-0.61431884765625	6.060791015625E-07
-0.604248046875	6.1004638671875E-07
-0.59417724609375	6.1431884765625E-07
-0.5841064453125	6.2225341796875E-07
-0.57403564453125	6.2896728515625E-07
-0.56396484375	6.3446044921875E-07
-0.55389404296875	6.439208984375E-07
-0.5438232421875	6.53076171875E-07
-0.53375244140625	6.6253662109375E-07
-0.523681640625	6.7047119140625E-07
-0.51361083984375	6.8023681640625E-07
-0.5035400390625	6.8878173828125E-07
-0.49346923828125	6.964111328125E-07
-0.4833984375	7.025146484375E-07
-0.47332763671875	7.0953369140625E-07
-0.4632568359375	7.1441650390625E-07
-0.45318603515625	7.1624755859375E-07
-0.443115234375	7.196044921875E-07
-0.43304443359375	7.2174072265625E-07
-0.4229736328125	7.232666015625E-07
-0.41290283203125	7.23876953125E-07
-0.40283203125	7.269287109375E-07
-0.39276123046875	7.275390625E-07
-0.3826904296875	7.28759765625E-07
-0.37261962890625	7.305908203125E-07
-0.362548828125	7.31201171875E-07
-0.35247802734375	7.2998046875E-07
-0.3424072265625	7.2906494140625E-07
-0.33233642578125	7.293701171875E-07
-0.322265625	7.2998046875E-07
-0.31219482421875	7.275390625E-07
-0.3021240234375	7.269287109375E-07
-0.29205322265625	7.26318359375E-07
-0.281982421875	7.2601318359375E-07
-0.27191162109375	7.244873046875E-07
-0.2618408203125	7.2479248046875E-07
-0.25177001953125	7.257080078125E-07
-0.24169921875	7.269287109375E-07
-0.23162841796875	7.2784423828125E-07
-0.2215576171875	7.3089599609375E-07
-0.21148681640625	7.36083984375E-07
-0.201416015625	7.40966796875E-07
-0.19134521484375	7.4737548828125E-07
-0.1812744140625	7.5836181640625E-07
-0.17120361328125	7.6873779296875E-07
-0.1611328125	7.830810546875E-07
-0.15106201171875	8.013916015625E-07
-0.1409912109375	8.2305908203125E-07
-0.13092041015625	8.4747314453125E-07
-0.120849609375	8.7677001953125E-07
-0.11077880859375	9.11865234375E-07
-0.1007080078125	9.515380859375E-07
-0.09063720703125	9.9700927734375E-07
-0.08056640625	1.0479736328125E-06
-0.07049560546875	1.1065673828125E-06
-0.0604248046875	1.17095947265625E-06
-0.05035400390625	1.241455078125E-06
-0.040283203125	1.31988525390625E-06
-0.03021240234375	1.40472412109375E-06
-0.0201416015625	1.49627685546875E-06
-0.01007080078125	1.5936279296875E-06
0	1.69677734375E-06
